Created as New Dataset;Sample 010 By student Date s—ndag, februari 22 2026
nm;%T
1500,0;23,86
1503,8;23,39
1507,5;24,72
1511,3;24,65
1515,0;23,94
1518,8;25,28
1522,5;24,80
1526,3;24,96
1530,0;24,55
1533,8;22,62
1537,5;23,98
1541,3;24,10
1545,0;24,12
1548,8;23,25
1552,5;22,87
1556,3;23,34
1560,0;24,40
1563,8;22,92
1567,5;23,15
1571,3;23,30
1575,0;22,87
1578,8;23,18
1582,5;21,88
1586,3;22,42
1590,0;22,91
1593,8;22,73
1597,5;21,55
1601,3;23,55
1605,0;23,60
1608,8;23,35
1612,5;23,98
1616,3;21,84
1620,0;23,05
1623,8;21,79
1627,5;24,02
1631,3;24,80
1635,0;24,21
1638,8;24,32
1642,5;23,98
1646,3;25,75
1650,0;24,66
1653,8;24,20
1657,5;27,24
1661,3;24,93
1665,0;26,60
1668,8;28,47
1672,5;26,05
1676,3;28,42
1680,0;26,35
1683,8;25,80
1687,5;28,84
1691,3;26,06
1695,0;26,87
1698,8;25,36
1702,5;26,17
1706,3;23,77
1710,0;24,40
1713,8;23,28
1717,5;23,25
1721,3;23,83
1725,0;22,02
1728,8;22,56
1732,5;22,18
1736,3;20,81
1740,0;21,35
1743,8;21,80
1747,5;22,11
1751,3;22,37
1755,0;22,16
1758,8;22,92
1762,5;21,85
1766,3;22,49
1770,0;22,71
1773,8;22,42
1777,5;22,71
1781,3;23,72
1785,0;23,86
1788,8;24,12
1792,5;25,21
1796,3;23,99
1800,0;24,43
1803,8;24,51
1807,5;24,80
1811,3;25,91
1815,0;25,72
1818,8;25,73
1822,5;26,83
1826,3;26,67
1830,0;27,16
1833,8;25,90
1837,5;26,71
1841,3;25,46
1845,0;26,85
1848,8;25,75
1852,5;27,94
1856,3;25,99
1860,0;25,87
1863,8;27,85
1867,5;28,29
1871,3;26,52
1875,0;26,49
1878,8;27,67
1882,5;28,40
1886,3;27,96
1890,0;27,49
1893,8;28,91
1897,5;28,96
1901,3;28,13
1905,0;28,94
1908,8;28,22
1912,5;30,57
1916,3;29,00
1920,0;28,91
1923,8;29,43
1927,5;29,72
1931,3;30,43
1935,0;30,38
1938,8;30,52
1942,5;30,83
1946,3;30,85
1950,0;31,18
1953,8;30,92
1957,5;29,82
1961,3;31,59
1965,0;31,12
1968,8;30,87
1972,5;30,49
1976,3;30,84
1980,0;30,72
1983,8;31,09
1987,5;32,41
1991,3;31,33
1995,0;29,79
1998,8;30,40
2002,5;30,27
2006,3;31,33
2010,0;30,52
2013,8;29,93
2017,5;31,06
2021,3;30,01
2025,0;30,83
2028,8;30,62
2032,5;31,16
2036,3;31,66
2040,0;31,25
2043,8;31,91
2047,5;31,54
2051,3;31,16
2055,0;31,11
2058,8;31,61
2062,5;31,35
2066,3;31,69
2070,0;30,77
2073,8;31,63
2077,5;31,60
2081,3;32,24
2085,0;31,67
2088,8;31,34
2092,5;32,17
2096,3;31,22
2100,0;31,94
2103,8;30,45
2107,5;30,92
2111,3;32,05
2115,0;32,07
2118,8;33,03
2122,5;34,20
2126,3;30,99
2130,0;32,46
2133,8;34,12
2137,5;31,54
2141,3;29,90
2145,0;31,77
2148,8;32,43
2152,5;33,53
2156,3;33,62
2160,0;30,87
2163,8;32,10
2167,5;33,18
2171,3;32,49
2175,0;31,07
2178,8;30,83
2182,5;32,26
2186,3;28,74
2190,0;32,19
2193,8;31,64
2197,5;31,47
2201,3;29,79
2205,0;31,01
2208,8;33,80
2212,5;33,47
2216,3;33,40
2220,0;33,37
2223,8;35,46
2227,5;30,88
2231,3;28,93
2235,0;35,40
2238,8;32,70
2242,5;35,73
2246,3;33,52
2250,0;30,85
2253,8;27,49
2257,5;38,64
2261,3;44,08
2265,0;28,94
2268,8;44,59
2272,5;45,19
2276,3;47,17
2280,0;46,59
2283,8;43,48
2287,5;39,13
2291,3;44,47
2295,0;52,65
2298,8;54,61
2302,5;50,60
2306,3;38,32
2310,0;37,87
2313,8;41,82
2317,5;33,64
2321,3;40,76
2325,0;37,34
2328,8;32,64
2332,5;32,01
2336,3;26,90
2340,0;36,91
2343,8;38,78
2347,5;32,56
2351,3;33,81
2355,0;31,59
2358,8;36,18
2362,5;35,40
2366,3;36,62
2370,0;36,10
2373,8;30,67
2377,5;36,51
2381,3;31,52
2385,0;35,05
2388,8;33,50
2392,5;31,67
2396,3;32,35
2400,0;32,99
2403,8;34,99
2407,5;35,40
2411,3;33,25
2415,0;31,86
2418,8;31,48
2422,5;32,63
2426,3;33,01
2430,0;33,45
2433,8;32,19
2437,5;32,86
2441,3;34,26
2445,0;31,96
2448,8;32,28
2452,5;34,36
2456,3;33,36
2460,0;31,11
2463,8;32,42
2467,5;32,03
2471,3;33,47
2475,0;33,20
2478,8;32,68
2482,5;31,60
2486,3;33,42
2490,0;34,71
2493,8;32,76
2497,5;32,07
2501,3;32,39
2505,0;32,07
2508,8;32,14
2512,5;32,24
2516,3;32,95
2520,0;32,16
2523,8;32,79
2527,5;32,70
2531,3;32,59
2535,0;33,46
2538,8;33,69
2542,5;33,15
2546,3;32,49
2550,0;31,78
2553,8;33,02
2557,5;32,72
2561,3;33,54
2565,0;33,43
2568,8;32,50
2572,5;34,21
2576,3;33,34
2580,0;33,81
2583,8;33,54
2587,5;34,27
2591,3;33,63
2595,0;34,20
2598,8;34,55
2602,5;33,59
2606,3;34,51
2610,0;33,21
2613,8;33,19
2617,5;33,41
2621,3;33,14
2625,0;33,59
2628,8;33,73
2632,5;34,24
2636,3;32,27
2640,0;32,92
2643,8;33,03
2647,5;32,91
2651,3;33,15
2655,0;33,05
2658,8;34,38
2662,5;33,23
2666,3;35,92
2670,0;35,25
2673,8;34,08
2677,5;34,60
2681,3;34,08
2685,0;33,70
2688,8;33,05
2692,5;32,89
2696,3;33,65
2700,0;33,59
2703,8;32,54
2707,5;32,90
2711,3;34,11
2715,0;32,52
2718,8;32,70
2722,5;34,33
2726,3;34,14
2730,0;32,70
2733,8;33,43
2737,5;33,99
2741,3;34,53
2745,0;33,99
2748,8;32,91
2752,5;32,80
2756,3;32,68
2760,0;33,08
2763,8;33,17
2767,5;33,81
2771,3;32,64
2775,0;33,01
2778,8;32,68
2782,5;32,68
2786,3;32,96
2790,0;32,64
2793,8;32,08
2797,5;32,30
2801,3;32,43
2805,0;33,20
2808,8;32,21
2812,5;31,55
2816,3;31,95
2820,0;32,34
2823,8;32,02
2827,5;31,94
2831,3;32,13
2835,0;32,33
2838,8;31,69
2842,5;31,77
2846,3;31,61
2850,0;31,77
2853,8;32,30
2857,5;31,81
2861,3;31,73
2865,0;31,83
2868,8;31,85
2872,5;32,20
2876,3;31,99
2880,0;31,61
2883,8;31,72
2887,5;31,42
2891,3;31,50
2895,0;31,69
2898,8;31,69
2902,5;32,02
2906,3;31,97
2910,0;31,92
2913,8;31,83
2917,5;31,49
2921,3;31,83
2925,0;31,82
2928,8;31,56
2932,5;31,76
2936,3;31,28
2940,0;31,18
2943,8;31,54
2947,5;31,68
2951,3;31,80
2955,0;31,42
2958,8;31,37
2962,5;31,77
2966,3;31,83
2970,0;31,67
2973,8;31,44
2977,5;31,52
2981,3;31,87
2985,0;31,33
2988,8;31,35
2992,5;31,81
2996,3;31,14
3000,0;31,57
3003,8;31,45
3007,5;31,52
3011,3;31,14
3015,0;31,72
3018,8;31,42
3022,5;31,21
3026,3;31,04
3030,0;31,54
3033,8;31,34
3037,5;31,30
3041,3;31,46
3045,0;31,42
3048,8;31,41
3052,5;31,39
3056,3;31,18
3060,0;31,42
3063,8;31,50
3067,5;31,26
3071,3;30,96
3075,0;31,47
3078,8;31,48
3082,5;31,49
3086,3;31,39
3090,0;31,02
3093,8;31,02
3097,5;31,11
3101,3;31,27
3105,0;31,35
3108,8;31,27
3112,5;31,57
3116,3;31,28
3120,0;31,22
3123,8;31,30
3127,5;31,54
3131,3;31,38
3135,0;31,50
3138,8;31,50
3142,5;31,50
3146,3;31,39
3150,0;31,23
3153,8;31,11
3157,5;31,43
3161,3;31,31
3165,0;31,09
3168,8;31,34
3172,5;31,40
3176,3;31,32
3180,0;31,24
3183,8;31,22
3187,5;31,43
3191,3;31,38
3195,0;31,21
3198,8;31,44
3202,5;31,39
3206,3;31,49
3210,0;31,29
3213,8;31,58
3217,5;31,63
3221,3;31,53
3225,0;31,42
3228,8;31,20
3232,5;31,41
3236,3;31,29
3240,0;31,25
3243,8;31,36
3247,5;31,61
3251,3;31,45
3255,0;31,57
3258,8;31,38
3262,5;31,35
3266,3;31,39
3270,0;31,57
3273,8;31,41
3277,5;31,30
3281,3;31,51
3285,0;31,61
3288,8;31,47
3292,5;31,44
3296,3;31,53
3300,0;31,54
3303,8;31,47
3307,5;31,52
3311,3;31,24
3315,0;31,17
3318,8;31,43
3322,5;31,40
3326,3;31,35
3330,0;31,50
3333,8;31,48
3337,5;31,29
3341,3;31,16
3345,0;31,23
3348,8;31,27
3352,5;31,20
3356,3;31,11
3360,0;31,00
3363,8;31,25
3367,5;31,08
3371,3;30,87
3375,0;30,99
3378,8;30,98
3382,5;30,87
3386,3;30,96
3390,0;30,81
3393,8;30,83
3397,5;31,00
3401,3;31,03
3405,0;31,02
3408,8;30,87
3412,5;30,69
3416,3;30,73
3420,0;30,88
3423,8;30,89
3427,5;30,60
3431,3;30,66
3435,0;30,69
3438,8;31,00
3442,5;31,03
3446,3;31,07
3450,0;31,07
3453,8;30,99
3457,5;31,07
3461,3;31,08
3465,0;30,97
3468,8;31,12
3472,5;31,13
3476,3;31,04
3480,0;31,06
3483,8;31,13
3487,5;31,03
3491,3;31,07
3495,0;31,15
3498,8;31,05
3502,5;30,80
3506,3;30,71
3510,0;30,69
3513,8;30,70
3517,5;31,09
3521,3;31,20
3525,0;31,23
3528,8;31,17
3532,5;31,15
3536,3;31,14
3540,0;31,00
3543,8;31,05
3547,5;31,07
3551,3;31,19
3555,0;31,13
3558,8;31,31
3562,5;31,41
3566,3;31,22
3570,0;31,09
3573,8;31,20
3577,5;31,29
3581,3;31,30
3585,0;31,35
3588,8;31,25
3592,5;31,30
3596,3;31,15
3600,0;31,23
3603,8;31,19
3607,5;31,21
3611,3;31,15
3615,0;31,26
3618,8;31,34
3622,5;31,40
3626,3;31,26
3630,0;31,17
3633,8;31,19
3637,5;31,04
3641,3;31,06
3645,0;31,23
3648,8;31,25
3652,5;31,23
3656,3;31,25
3660,0;31,26
3663,8;31,20
3667,5;31,16
3671,3;31,16
3675,0;31,28
3678,8;31,38
3682,5;31,13
3686,3;31,11
3690,0;31,21
3693,8;31,35
3697,5;31,20
3701,3;31,20
3705,0;31,23
3708,8;31,21
3712,5;31,09
3716,3;31,16
3720,0;31,21
3723,8;31,28
3727,5;31,29
3731,3;31,20
3735,0;31,16
3738,8;31,22
3742,5;31,26
3746,3;31,13
3750,0;31,16
3753,8;31,21
3757,5;31,02
3761,3;31,07
3765,0;31,28
3768,8;31,18
3772,5;31,08
3776,3;31,15
3780,0;31,29
3783,8;31,32
3787,5;31,27
3791,3;31,24
3795,0;31,18
3798,8;31,21
3802,5;31,23
3806,3;31,16
3810,0;31,19
3813,8;31,23
3817,5;31,27
3821,3;31,18
3825,0;31,10
3828,8;31,10
3832,5;31,10
3836,3;31,10
3840,0;31,15
3843,8;31,15
3847,5;31,13
3851,3;31,22
3855,0;31,23
3858,8;31,11
3862,5;31,13
3866,3;31,12
3870,0;31,15
3873,8;31,14
3877,5;31,08
3881,3;31,12
3885,0;31,09
3888,8;31,11
3892,5;31,14
3896,3;31,15
3900,0;31,12
3903,8;31,09
3907,5;31,13
3911,3;31,22
3915,0;31,20
3918,8;31,07
3922,5;31,01
3926,3;31,11
3930,0;31,14
3933,8;31,14
3937,5;31,11
3941,3;31,10
3945,0;31,00
3948,8;31,01
3952,5;31,00
3956,3;31,06
3960,0;31,17
3963,8;31,09
3967,5;31,06
3971,3;31,11
3975,0;31,09
3978,8;31,05
3982,5;31,14
3986,3;31,08
3990,0;31,01
3993,8;31,08
3997,5;31,13
4001,3;31,14
4005,0;31,10
4008,8;31,14
4012,5;31,12
4016,3;31,09
4020,0;31,14
4023,8;31,22
4027,5;31,13
4031,3;31,07
4035,0;31,12
4038,8;31,10
4042,5;31,08
4046,3;31,15
4050,0;31,04
4053,8;31,06
4057,5;31,17
4061,3;31,11
4065,0;31,08
4068,8;31,10
4072,5;31,09
4076,3;31,12
4080,0;31,14
4083,8;31,09
4087,5;31,08
4091,3;31,09
4095,0;31,03
4098,8;30,94
4102,5;30,98
4106,3;31,05
4110,0;31,01
4113,8;31,00
4117,5;31,05
4121,3;30,97
4125,0;30,90
4128,8;30,90
4132,5;30,88
4136,3;30,92
4140,0;31,03
4143,8;31,04
4147,5;30,92
4151,3;30,91
4155,0;31,01
4158,8;31,04
4162,5;30,96
4166,3;30,95
4170,0;31,00
4173,8;30,99
4177,5;30,99
4181,3;30,94
4185,0;30,89
4188,8;30,98
4192,5;31,03
4196,3;31,04
4200,0;31,15
4203,8;31,18
4207,5;31,13
4211,3;31,25
4215,0;31,41
4218,8;31,47
4222,5;31,58
4226,3;31,49
4230,0;31,15
4233,8;31,20
4237,5;31,38
4241,3;31,24
4245,0;31,07
4248,8;30,95
4252,5;30,81
4256,3;30,83
4260,0;31,15
4263,8;31,71
4267,5;31,80
4271,3;31,33
4275,0;30,95
4278,8;30,90
4282,5;31,04
4286,3;31,05
4290,0;30,89
4293,8;30,75
4297,5;30,78
4301,3;30,80
4305,0;30,82
4308,8;30,83
4312,5;30,77
4316,3;30,66
4320,0;30,70
4323,8;30,78
4327,5;30,76
4331,3;30,74
4335,0;30,80
4338,8;30,80
4342,5;30,76
4346,3;30,84
4350,0;30,90
4353,8;30,83
4357,5;30,82
4361,3;30,89
4365,0;30,89
4368,8;30,83
4372,5;30,79
4376,3;30,80
4380,0;30,81
4383,8;30,85
4387,5;30,93
4391,3;30,99
4395,0;30,98
4398,8;30,88
4402,5;30,81
4406,3;30,79
4410,0;30,78
4413,8;30,72
4417,5;30,68
4421,3;30,72
4425,0;30,76
4428,8;30,74
4432,5;30,74
4436,3;30,77
4440,0;30,77
4443,8;30,77
4447,5;30,77
4451,3;30,76
4455,0;30,77
4458,8;30,84
4462,5;30,91
4466,3;30,88
4470,0;30,75
4473,8;30,69
4477,5;30,73
4481,3;30,71
4485,0;30,65
4488,8;30,63
4492,5;30,67
4496,3;30,71
4500,0;30,72
4503,8;30,71
4507,5;30,70
4511,3;30,69
4515,0;30,65
4518,8;30,59
4522,5;30,54
4526,3;30,55
4530,0;30,59
4533,8;30,63
4537,5;30,67
4541,3;30,68
4545,0;30,64
4548,8;30,63
4552,5;30,66
4556,3;30,68
4560,0;30,70
4563,8;30,68
4567,5;30,66
4571,3;30,66
4575,0;30,63
4578,8;30,58
4582,5;30,52
4586,3;30,55
4590,0;30,65
4593,8;30,69
4597,5;30,61
4601,3;30,56
4605,0;30,65
4608,8;30,70
4612,5;30,65
4616,3;30,63
4620,0;30,60
4623,8;30,57
4627,5;30,62
4631,3;30,67
4635,0;30,65
4638,8;30,65
4642,5;30,61
4646,3;30,57
4650,0;30,61
4653,8;30,65
4657,5;30,62
4661,3;30,59
4665,0;30,59
4668,8;30,57
4672,5;30,54
4676,3;30,59
4680,0;30,70
4683,8;30,71
4687,5;30,59
4691,3;30,48
4695,0;30,46
4698,8;30,49
4702,5;30,52
4706,3;30,55
4710,0;30,56
4713,8;30,54
4717,5;30,53
4721,3;30,56
4725,0;30,53
4728,8;30,48
4732,5;30,49
4736,3;30,53
4740,0;30,57
4743,8;30,59
4747,5;30,55
4751,3;30,51
4755,0;30,50
4758,8;30,50
4762,5;30,49
4766,3;30,47
4770,0;30,43
4773,8;30,44
4777,5;30,46
4781,3;30,47
4785,0;30,51
4788,8;30,57
4792,5;30,55
4796,3;30,51
4800,0;30,49
4803,8;30,46
4807,5;30,47
4811,3;30,47
4815,0;30,43
4818,8;30,43
4822,5;30,48
4826,3;30,49
4830,0;30,49
4833,8;30,50
4837,5;30,51
4841,3;30,52
4845,0;30,54
4848,8;30,56
4852,5;30,56
4856,3;30,51
4860,0;30,47
4863,8;30,45
4867,5;30,45
4871,3;30,43
4875,0;30,41
4878,8;30,41
4882,5;30,42
4886,3;30,39
4890,0;30,34
4893,8;30,34
4897,5;30,34
4901,3;30,31
4905,0;30,31
4908,8;30,35
4912,5;30,38
4916,3;30,40
4920,0;30,41
4923,8;30,37
4927,5;30,33
4931,3;30,33
4935,0;30,33
4938,8;30,29
4942,5;30,29
4946,3;30,32
4950,0;30,37
4953,8;30,41
4957,5;30,43
4961,3;30,39
4965,0;30,34
4968,8;30,32
4972,5;30,31
4976,3;30,28
4980,0;30,25
4983,8;30,26
4987,5;30,27
4991,3;30,29
4995,0;30,33
4998,8;30,33
5002,5;30,32
5006,3;30,27
5010,0;30,23
5013,8;30,25
5017,5;30,31
5021,3;30,35
5025,0;30,34
5028,8;30,31
5032,5;30,32
5036,3;30,35
5040,0;30,34
5043,8;30,30
5047,5;30,29
5051,3;30,29
5055,0;30,27
5058,8;30,25
5062,5;30,23
5066,3;30,25
5070,0;30,28
5073,8;30,28
5077,5;30,29
5081,3;30,31
5085,0;30,33
5088,8;30,31
5092,5;30,26
5096,3;30,25
5100,0;30,26
5103,8;30,27
5107,5;30,25
5111,3;30,22
5115,0;30,20
5118,8;30,20
5122,5;30,18
5126,3;30,15
5130,0;30,08
5133,8;30,05
5137,5;30,07
5141,3;30,09
5145,0;30,10
5148,8;30,14
5152,5;30,16
5156,3;30,15
5160,0;30,15
5163,8;30,16
5167,5;30,16
5171,3;30,15
5175,0;30,17
5178,8;30,20
5182,5;30,20
5186,3;30,17
5190,0;30,16
5193,8;30,16
5197,5;30,16
5201,3;30,17
5205,0;30,17
5208,8;30,15
5212,5;30,13
5216,3;30,13
5220,0;30,14
5223,8;30,14
5227,5;30,12
5231,3;30,10
5235,0;30,08
5238,8;30,09
5242,5;30,11
5246,3;30,11
5250,0;30,08
5253,8;30,09
5257,5;30,12
5261,3;30,13
5265,0;30,10
5268,8;30,06
5272,5;30,04
5276,3;30,09
5280,0;30,14
5283,8;30,12
5287,5;30,05
5291,3;30,02
5295,0;30,03
5298,8;30,05
5302,5;30,06
5306,3;30,06
5310,0;30,06
5313,8;30,05
5317,5;30,04
5321,3;30,06
5325,0;30,07
5328,8;30,07
5332,5;30,06
5336,3;30,08
5340,0;30,11
5343,8;30,14
5347,5;30,15
5351,3;30,13
5355,0;30,12
5358,8;30,13
5362,5;30,14
5366,3;30,14
5370,0;30,14
5373,8;30,14
5377,5;30,14
5381,3;30,13
5385,0;30,13
5388,8;30,14
5392,5;30,14
5396,3;30,12
5400,0;30,09
5403,8;30,06
5407,5;30,05
5411,3;30,03
5415,0;30,03
5418,8;30,02
5422,5;30,03
5426,3;30,04
5430,0;30,03
5433,8;30,02
5437,5;30,03
5441,3;30,04
5445,0;30,04
5448,8;30,05
5452,5;30,04
5456,3;30,01
5460,0;29,97
5463,8;29,94
5467,5;29,96
5471,3;29,97
5475,0;29,96
5478,8;29,92
5482,5;29,90
5486,3;29,91
5490,0;29,94
5493,8;29,97
5497,5;29,98
5501,3;29,96
5505,0;29,93
5508,8;29,90
5512,5;29,89
5516,3;29,90
5520,0;29,92
5523,8;29,92
5527,5;29,86
5531,3;29,77
5535,0;29,74
5538,8;29,75
5542,5;29,76
5546,3;29,78
5550,0;29,81
5553,8;29,83
5557,5;29,82
5561,3;29,78
5565,0;29,75
5568,8;29,76
5572,5;29,77
5576,3;29,76
5580,0;29,72
5583,8;29,68
5587,5;29,66
5591,3;29,65
5595,0;29,66
5598,8;29,67
5602,5;29,66
5606,3;29,63
5610,0;29,60
5613,8;29,62
5617,5;29,66
5621,3;29,68
5625,0;29,68
5628,8;29,66
5632,5;29,63
5636,3;29,60
5640,0;29,57
5643,8;29,55
5647,5;29,54
5651,3;29,53
5655,0;29,53
5658,8;29,53
5662,5;29,53
5666,3;29,53
5670,0;29,52
5673,8;29,51
5677,5;29,50
5681,3;29,47
5685,0;29,42
5688,8;29,36
5692,5;29,34
5696,3;29,35
5700,0;29,35
5703,8;29,34
5707,5;29,32
5711,3;29,26
5715,0;29,20
5718,8;29,16
5722,5;29,15
5726,3;29,15
5730,0;29,16
5733,8;29,17
5737,5;29,17
5741,3;29,14
5745,0;29,10
5748,8;29,06
5752,5;29,05
5756,3;29,04
5760,0;29,04
5763,8;29,04
5767,5;29,07
5771,3;29,09
5775,0;29,06
5778,8;29,02
5782,5;29,00
5786,3;28,99
5790,0;28,99
5793,8;29,00
5797,5;29,02
5801,3;29,04
5805,0;29,08
5808,8;29,12
5812,5;29,14
5816,3;29,14
5820,0;29,13
5823,8;29,11
5827,5;29,10
5831,3;29,10
5835,0;29,10
5838,8;29,07
5842,5;29,04
5846,3;29,04
5850,0;29,07
5853,8;29,10
5857,5;29,11
5861,3;29,11
5865,0;29,11
5868,8;29,12
5872,5;29,12
5876,3;29,09
5880,0;29,05
5883,8;29,05
5887,5;29,07
5891,3;29,07
5895,0;29,07
5898,8;29,09
5902,5;29,09
5906,3;29,06
5910,0;29,02
5913,8;29,00
5917,5;28,98
5921,3;28,98
5925,0;28,99
5928,8;29,01
5932,5;29,02
5936,3;29,03
5940,0;29,05
5943,8;29,02
5947,5;28,95
5951,3;28,89
5955,0;28,84
5958,8;28,80
5962,5;28,78
5966,3;28,78
5970,0;28,78
5973,8;28,78
5977,5;28,79
5981,3;28,82
5985,0;28,86
5988,8;28,86
5992,5;28,84
5996,3;28,79
6000,0;28,73
6003,8;28,71
6007,5;28,73
6011,3;28,77
6015,0;28,78
6018,8;28,76
6022,5;28,74
6026,3;28,73
6030,0;28,75
6033,8;28,79
6037,5;28,83
6041,3;28,84
6045,0;28,79
6048,8;28,72
6052,5;28,72
6056,3;28,71
6060,0;28,67
6063,8;28,67
6067,5;28,71
6071,3;28,74
6075,0;28,75
6078,8;28,74
6082,5;28,73
6086,3;28,74
6090,0;28,76
6093,8;28,78
6097,5;28,80
6101,3;28,82
6105,0;28,83
6108,8;28,85
6112,5;28,87
6116,3;28,89
6120,0;28,90
6123,8;28,87
6127,5;28,84
6131,3;28,81
6135,0;28,78
6138,8;28,77
6142,5;28,77
6146,3;28,79
6150,0;28,78
6153,8;28,75
6157,5;28,74
6161,3;28,75
6165,0;28,75
6168,8;28,75
6172,5;28,74
6176,3;28,74
6180,0;28,74
6183,8;28,73
6187,5;28,73
6191,3;28,74
6195,0;28,75
6198,8;28,77
6202,5;28,81
6206,3;28,85
6210,0;28,87
6213,8;28,86
6217,5;28,82
6221,3;28,78
6225,0;28,74
6228,8;28,74
6232,5;28,76
6236,3;28,78
6240,0;28,77
6243,8;28,75
6247,5;28,74
6251,3;28,72
6255,0;28,70
6258,8;28,68
6262,5;28,68
6266,3;28,71
6270,0;28,74
6273,8;28,76
6277,5;28,76
6281,3;28,75
6285,0;28,73
6288,8;28,72
6292,5;28,72
6296,3;28,73
6300,0;28,74
6303,8;28,75
6307,5;28,75
6311,3;28,76
6315,0;28,78
6318,8;28,77
6322,5;28,75
6326,3;28,74
6330,0;28,75
6333,8;28,77
6337,5;28,80
6341,3;28,81
6345,0;28,81
6348,8;28,80
6352,5;28,79
6356,3;28,78
6360,0;28,78
6363,8;28,77
6367,5;28,74
6371,3;28,71
6375,0;28,72
6378,8;28,73
6382,5;28,74
6386,3;28,73
6390,0;28,72
6393,8;28,71
6397,5;28,70
6401,3;28,70
6405,0;28,70
6408,8;28,69
6412,5;28,65
6416,3;28,67
6420,0;28,73
6423,8;28,77
6427,5;28,78
6431,3;28,79
6435,0;28,79
6438,8;28,77
6442,5;28,75
6446,3;28,74
6450,0;28,75
6453,8;28,78
6457,5;28,80
6461,3;28,80
6465,0;28,76
6468,8;28,71
6472,5;28,67
6476,3;28,66
6480,0;28,65
6483,8;28,64
6487,5;28,61
6491,3;28,57
6495,0;28,55
6498,8;28,58
6502,5;28,61
6506,3;28,63
6510,0;28,64
6513,8;28,64
6517,5;28,63
6521,3;28,62
6525,0;28,62
6528,8;28,63
6532,5;28,62
6536,3;28,59
6540,0;28,57
6543,8;28,57
6547,5;28,60
6551,3;28,65
6555,0;28,70
6558,8;28,74
6562,5;28,75
6566,3;28,75
6570,0;28,74
6573,8;28,73
6577,5;28,73
6581,3;28,73
6585,0;28,74
6588,8;28,74
6592,5;28,73
6596,3;28,73
6600,0;28,73
6603,8;28,72
6607,5;28,71
6611,3;28,70
6615,0;28,68
6618,8;28,67
6622,5;28,67
6626,3;28,68
6630,0;28,67
6633,8;28,65
6637,5;28,65
6641,3;28,68
6645,0;28,69
6648,8;28,67
6652,5;28,65
6656,3;28,64
6660,0;28,65
6663,8;28,66
6667,5;28,68
6671,3;28,68
6675,0;28,67
6678,8;28,64
6682,5;28,60
6686,3;28,55
6690,0;28,51
6693,8;28,45
6697,5;28,41
6701,3;28,38
6705,0;28,38
6708,8;28,40
6712,5;28,43
6716,3;28,47
6720,0;28,49
6723,8;28,51
6727,5;28,52
6731,3;28,51
6735,0;28,50
6738,8;28,48
6742,5;28,46
6746,3;28,44
6750,0;28,42
6753,8;28,40
6757,5;28,40
6761,3;28,40
6765,0;28,41
6768,8;28,41
6772,5;28,41
6776,3;28,41
6780,0;28,39
6783,8;28,35
6787,5;28,29
6791,3;28,24
6795,0;28,22
6798,8;28,23
6802,5;28,25
6806,3;28,27
6810,0;28,27
6813,8;28,26
6817,5;28,24
6821,3;28,21
6825,0;28,17
6828,8;28,14
6832,5;28,11
6836,3;28,09
6840,0;28,07
6843,8;28,06
6847,5;28,06
6851,3;28,07
6855,0;28,07
6858,8;28,05
6862,5;28,01
6866,3;27,97
6870,0;27,94
6873,8;27,92
6877,5;27,92
6881,3;27,92
6885,0;27,93
6888,8;27,95
6892,5;27,97
6896,3;27,99
6900,0;28,01
6903,8;28,02
6907,5;28,01
6911,3;27,99
6915,0;27,98
6918,8;27,99
6922,5;28,00
6926,3;28,01
6930,0;28,01
6933,8;28,01
6937,5;28,00
6941,3;27,99
6945,0;27,98
6948,8;27,98
6952,5;27,99
6956,3;28,01
6960,0;28,01
6963,8;28,00
6967,5;27,97
6971,3;27,94
6975,0;27,91
6978,8;27,90
6982,5;27,90
6986,3;27,91
6990,0;27,91
6993,8;27,92
6997,5;27,93
7001,3;27,94
7005,0;27,95
7008,8;27,96
7012,5;27,97
7016,3;27,97
7020,0;27,97
7023,8;27,98
7027,5;27,99
7031,3;28,01
7035,0;28,03
7038,8;28,04
7042,5;28,03
7046,3;28,00
7050,0;27,97
7053,8;27,95
7057,5;27,94
7061,3;27,93
7065,0;27,93
7068,8;27,94
7072,5;27,96
7076,3;27,98
7080,0;28,01
7083,8;28,01
7087,5;28,02
7091,3;28,03
7095,0;28,04
7098,8;28,05
7102,5;28,05
7106,3;28,02
7110,0;27,97
7113,8;27,92
7117,5;27,88
7121,3;27,87
7125,0;27,88
7128,8;27,90
7132,5;27,91
7136,3;27,93
7140,0;27,93
7143,8;27,93
7147,5;27,93
7151,3;27,93
7155,0;27,92
7158,8;27,91
7162,5;27,90
7166,3;27,89
7170,0;27,89
7173,8;27,91
7177,5;27,92
7181,3;27,92
7185,0;27,91
7188,8;27,89
7192,5;27,88
7196,3;27,87
7200,0;27,87
7203,8;27,87
7207,5;27,87
7211,3;27,86
7215,0;27,85
7218,8;27,83
7222,5;27,82
7226,3;27,81
7230,0;27,81
7233,8;27,81
7237,5;27,80
7241,3;27,80
7245,0;27,79
7248,8;27,78
7252,5;27,77
7256,3;27,75
7260,0;27,74
7263,8;27,73
7267,5;27,74
7271,3;27,76
7275,0;27,78
7278,8;27,80
7282,5;27,82
7286,3;27,83
7290,0;27,84
7293,8;27,85
7297,5;27,87
7301,3;27,88
7305,0;27,90
7308,8;27,90
7312,5;27,89
7316,3;27,87
7320,0;27,86
7323,8;27,85
7327,5;27,85
7331,3;27,85
7335,0;27,85
7338,8;27,87
7342,5;27,90
7346,3;27,93
7350,0;27,97
7353,8;28,00
7357,5;28,01
7361,3;28,02
7365,0;28,02
7368,8;28,02
7372,5;28,03
7376,3;28,03
7380,0;28,02
7383,8;28,00
7387,5;27,97
7391,3;27,93
7395,0;27,91
7398,8;27,90
7402,5;27,90
7406,3;27,90
7410,0;27,91
7413,8;27,91
7417,5;27,91
7421,3;27,91
7425,0;27,90
7428,8;27,91
7432,5;27,91
7436,3;27,90
7440,0;27,90
7443,8;27,89
7447,5;27,88
7451,3;27,87
7455,0;27,87
7458,8;27,85
7462,5;27,84
7466,3;27,82
7470,0;27,81
7473,8;27,81
7477,5;27,81
7481,3;27,83
7485,0;27,84
7488,8;27,85
7492,5;27,85
7496,3;27,83
7500,0;27,82
7503,8;27,80
7507,5;27,79
7511,3;27,77
7515,0;27,76
7518,8;27,76
7522,5;27,77
7526,3;27,79
7530,0;27,81
7533,8;27,84
7537,5;27,86
7541,3;27,87
7545,0;27,87
7548,8;27,87
7552,5;27,85
7556,3;27,83
7560,0;27,82
7563,8;27,80
7567,5;27,78
7571,3;27,76
7575,0;27,75
7578,8;27,74
7582,5;27,74
7586,3;27,74
7590,0;27,75
7593,8;27,75
7597,5;27,75
7601,3;27,75
7605,0;27,74
7608,8;27,74
7612,5;27,75
7616,3;27,75
7620,0;27,74
7623,8;27,73
7627,5;27,71
7631,3;27,68
7635,0;27,66
7638,8;27,65
7642,5;27,66
7646,3;27,69
7650,0;27,72
7653,8;27,74
7657,5;27,76
7661,3;27,76
7665,0;27,75
7668,8;27,74
7672,5;27,72
7676,3;27,69
7680,0;27,67
7683,8;27,64
7687,5;27,62
7691,3;27,62
7695,0;27,61
7698,8;27,62
7702,5;27,62
7706,3;27,63
7710,0;27,62
7713,8;27,61
7717,5;27,60
7721,3;27,58
7725,0;27,57
7728,8;27,57
7732,5;27,56
7736,3;27,56
7740,0;27,57
7743,8;27,58
7747,5;27,59
7751,3;27,60
7755,0;27,60
7758,8;27,59
7762,5;27,57
7766,3;27,55
7770,0;27,52
7773,8;27,51
7777,5;27,50
7781,3;27,50
7785,0;27,52
7788,8;27,55
7792,5;27,58
7796,3;27,61
7800,0;27,64
7803,8;27,66
7807,5;27,67
7811,3;27,67
7815,0;27,67
7818,8;27,67
7822,5;27,66
7826,3;27,65
7830,0;27,62
7833,8;27,60
7837,5;27,57
7841,3;27,54
7845,0;27,53
7848,8;27,52
7852,5;27,52
7856,3;27,52
7860,0;27,53
7863,8;27,54
7867,5;27,55
7871,3;27,55
7875,0;27,55
7878,8;27,53
7882,5;27,51
7886,3;27,48
7890,0;27,45
7893,8;27,43
7897,5;27,42
7901,3;27,42
7905,0;27,44
7908,8;27,45
7912,5;27,46
7916,3;27,46
7920,0;27,45
7923,8;27,43
7927,5;27,43
7931,3;27,42
7935,0;27,43
7938,8;27,46
7942,5;27,48
7946,3;27,51
7950,0;27,53
7953,8;27,53
7957,5;27,53
7961,3;27,53
7965,0;27,52
7968,8;27,51
7972,5;27,51
7976,3;27,51
7980,0;27,51
7983,8;27,51
7987,5;27,50
7991,3;27,49
7995,0;27,47
7998,8;27,46
8002,5;27,45
8006,3;27,44
8010,0;27,44
8013,8;27,44
8017,5;27,45
8021,3;27,46
8025,0;27,48
8028,8;27,50
8032,5;27,52
8036,3;27,53
8040,0;27,54
8043,8;27,54
8047,5;27,52
8051,3;27,51
8055,0;27,49
8058,8;27,48
8062,5;27,46
8066,3;27,44
8070,0;27,42
8073,8;27,41
8077,5;27,40
8081,3;27,40
8085,0;27,40
8088,8;27,41
8092,5;27,42
8096,3;27,43
8100,0;27,43
8103,8;27,41
8107,5;27,40
8111,3;27,39
8115,0;27,38
8118,8;27,37
8122,5;27,37
8126,3;27,37
8130,0;27,38
8133,8;27,38
8137,5;27,39
8141,3;27,40
8145,0;27,40
8148,8;27,41
8152,5;27,42
8156,3;27,43
8160,0;27,45
8163,8;27,46
8167,5;27,48
8171,3;27,50
8175,0;27,51
8178,8;27,52
8182,5;27,53
8186,3;27,54
8190,0;27,53
8193,8;27,53
8197,5;27,52
8201,3;27,50
8205,0;27,49
8208,8;27,47
8212,5;27,46
8216,3;27,44
8220,0;27,43
8223,8;27,42
8227,5;27,41
8231,3;27,41
8235,0;27,40
8238,8;27,39
8242,5;27,39
8246,3;27,39
8250,0;27,39
8253,8;27,39
8257,5;27,39
8261,3;27,38
8265,0;27,38
8268,8;27,38
8272,5;27,37
8276,3;27,37
8280,0;27,36
8283,8;27,36
8287,5;27,37
8291,3;27,38
8295,0;27,38
8298,8;27,39
8302,5;27,39
8306,3;27,38
8310,0;27,36
8313,8;27,34
8317,5;27,32
8321,3;27,29
8325,0;27,27
8328,8;27,26
8332,5;27,25
8336,3;27,25
8340,0;27,26
8343,8;27,27
8347,5;27,29
8351,3;27,30
8355,0;27,31
8358,8;27,32
8362,5;27,31
8366,3;27,31
8370,0;27,30
8373,8;27,29
8377,5;27,28
8381,3;27,28
8385,0;27,27
8388,8;27,28
8392,5;27,28
8396,3;27,28
8400,0;27,29
8403,8;27,30
8407,5;27,32
8411,3;27,34
8415,0;27,35
8418,8;27,36
8422,5;27,36
8426,3;27,35
8430,0;27,33
8433,8;27,30
8437,5;27,27
8441,3;27,25
8445,0;27,22
8448,8;27,19
8452,5;27,18
8456,3;27,16
8460,0;27,15
8463,8;27,14
8467,5;27,13
8471,3;27,12
8475,0;27,11
8478,8;27,09
8482,5;27,08
8486,3;27,06
8490,0;27,05
8493,8;27,04
8497,5;27,04
8501,3;27,05
8505,0;27,07
8508,8;27,09
8512,5;27,11
8516,3;27,13
8520,0;27,15
8523,8;27,16
8527,5;27,17
8531,3;27,17
8535,0;27,16
8538,8;27,15
8542,5;27,14
8546,3;27,12
8550,0;27,10
8553,8;27,09
8557,5;27,08
8561,3;27,07
8565,0;27,07
8568,8;27,08
8572,5;27,08
8576,3;27,07
8580,0;27,07
8583,8;27,07
8587,5;27,07
8591,3;27,07
8595,0;27,08
8598,8;27,10
8602,5;27,11
8606,3;27,13
8610,0;27,14
8613,8;27,14
8617,5;27,13
8621,3;27,12
8625,0;27,10
8628,8;27,09
8632,5;27,07
8636,3;27,06
8640,0;27,05
8643,8;27,05
8647,5;27,05
8651,3;27,06
8655,0;27,07
8658,8;27,08
8662,5;27,09
8666,3;27,09
8670,0;27,09
8673,8;27,08
8677,5;27,07
8681,3;27,06
8685,0;27,05
8688,8;27,04
8692,5;27,03
8696,3;27,02
8700,0;27,01
8703,8;27,00
8707,5;26,98
8711,3;26,95
8715,0;26,93
8718,8;26,91
8722,5;26,90
8726,3;26,90
8730,0;26,90
8733,8;26,90
8737,5;26,89
8741,3;26,89
8745,0;26,88
8748,8;26,87
8752,5;26,86
8756,3;26,85
8760,0;26,84
8763,8;26,84
8767,5;26,84
8771,3;26,83
8775,0;26,83
8778,8;26,83
8782,5;26,83
8786,3;26,84
8790,0;26,85
8793,8;26,87
8797,5;26,89
8801,3;26,90
8805,0;26,91
8808,8;26,92
8812,5;26,91
8816,3;26,89
8820,0;26,86
8823,8;26,84
8827,5;26,81
8831,3;26,80
8835,0;26,78
8838,8;26,77
8842,5;26,76
8846,3;26,76
8850,0;26,76
8853,8;26,75
8857,5;26,75
8861,3;26,75
8865,0;26,76
8868,8;26,76
8872,5;26,78
8876,3;26,79
8880,0;26,80
8883,8;26,81
8887,5;26,81
8891,3;26,80
8895,0;26,79
8898,8;26,78
8902,5;26,76
8906,3;26,74
8910,0;26,73
8913,8;26,73
8917,5;26,73
8921,3;26,74
8925,0;26,75
8928,8;26,76
8932,5;26,76
8936,3;26,75
8940,0;26,74
8943,8;26,72
8947,5;26,70
8951,3;26,69
8955,0;26,68
8958,8;26,68
8962,5;26,68
8966,3;26,69
8970,0;26,71
8973,8;26,72
8977,5;26,73
8981,3;26,74
8985,0;26,74
8988,8;26,75
8992,5;26,76
8996,3;26,78
9000,0;26,79
9003,8;26,81
9007,5;26,81
9011,3;26,82
9015,0;26,81
9018,8;26,79
9022,5;26,77
9026,3;26,75
9030,0;26,73
9033,8;26,70
9037,5;26,69
9041,3;26,67
9045,0;26,66
9048,8;26,65
9052,5;26,64
9056,3;26,63
9060,0;26,62
9063,8;26,63
9067,5;26,63
9071,3;26,65
9075,0;26,67
9078,8;26,69
9082,5;26,71
9086,3;26,73
9090,0;26,74
9093,8;26,74
9097,5;26,74
9101,3;26,74
9105,0;26,73
9108,8;26,72
9112,5;26,71
9116,3;26,70
9120,0;26,70
9123,8;26,69
9127,5;26,68
9131,3;26,67
9135,0;26,66
9138,8;26,65
9142,5;26,65
9146,3;26,65
9150,0;26,65
9153,8;26,66
9157,5;26,67
9161,3;26,68
9165,0;26,69
9168,8;26,70
9172,5;26,71
9176,3;26,72
9180,0;26,72
9183,8;26,72
9187,5;26,71
9191,3;26,70
9195,0;26,68
9198,8;26,67
9202,5;26,65
9206,3;26,64
9210,0;26,62
9213,8;26,61
9217,5;26,60
9221,3;26,60
9225,0;26,60
9228,8;26,60
9232,5;26,61
9236,3;26,63
9240,0;26,65
9243,8;26,67
9247,5;26,68
9251,3;26,70
9255,0;26,70
9258,8;26,69
9262,5;26,67
9266,3;26,64
9270,0;26,60
9273,8;26,57
9277,5;26,54
9281,3;26,51
9285,0;26,50
9288,8;26,49
9292,5;26,49
9296,3;26,50
9300,0;26,52
9303,8;26,54
9307,5;26,55
9311,3;26,57
9315,0;26,59
9318,8;26,60
9322,5;26,61
9326,3;26,61
9330,0;26,61
9333,8;26,61
9337,5;26,60
9341,3;26,59
9345,0;26,58
9348,8;26,57
9352,5;26,57
9356,3;26,57
9360,0;26,58
9363,8;26,59
9367,5;26,60
9371,3;26,62
9375,0;26,63
9378,8;26,64
9382,5;26,66
9386,3;26,67
9390,0;26,67
9393,8;26,68
9397,5;26,68
9401,3;26,68
9405,0;26,68
9408,8;26,68
9412,5;26,68
9416,3;26,68
9420,0;26,67
9423,8;26,67
9427,5;26,67
9431,3;26,67
9435,0;26,67
9438,8;26,67
9442,5;26,67
9446,3;26,66
9450,0;26,65
9453,8;26,63
9457,5;26,62
9461,3;26,61
9465,0;26,59
9468,8;26,59
9472,5;26,58
9476,3;26,58
9480,0;26,58
9483,8;26,58
9487,5;26,58
9491,3;26,58
9495,0;26,58
9498,8;26,58
9502,5;26,58
9506,3;26,58
9510,0;26,58
9513,8;26,58
9517,5;26,59
9521,3;26,60
9525,0;26,61
9528,8;26,62
9532,5;26,62
9536,3;26,63
9540,0;26,63
9543,8;26,63
9547,5;26,63
9551,3;26,62
9555,0;26,62
9558,8;26,62
9562,5;26,62
9566,3;26,63
9570,0;26,63
9573,8;26,63
9577,5;26,63
9581,3;26,62
9585,0;26,60
9588,8;26,58
9592,5;26,55
9596,3;26,52
9600,0;26,49
9603,8;26,46
9607,5;26,43
9611,3;26,42
9615,0;26,41
9618,8;26,41
9622,5;26,42
9626,3;26,43
9630,0;26,45
9633,8;26,48
9637,5;26,50
9641,3;26,53
9645,0;26,55
9648,8;26,56
9652,5;26,58
9656,3;26,58
9660,0;26,59
9663,8;26,58
9667,5;26,58
9671,3;26,57
9675,0;26,57
9678,8;26,56
9682,5;26,55
9686,3;26,55
9690,0;26,54
9693,8;26,54
9697,5;26,54
9701,3;26,55
9705,0;26,55
9708,8;26,55
9712,5;26,55
9716,3;26,56
9720,0;26,55
9723,8;26,55
9727,5;26,55
9731,3;26,55
9735,0;26,55
9738,8;26,55
9742,5;26,55
9746,3;26,56
9750,0;26,57
9753,8;26,58
9757,5;26,58
9761,3;26,59
9765,0;26,58
9768,8;26,58
9772,5;26,57
9776,3;26,55
9780,0;26,54
9783,8;26,53
9787,5;26,52
9791,3;26,52
9795,0;26,53
9798,8;26,53
9802,5;26,55
9806,3;26,56
9810,0;26,57
9813,8;26,58
9817,5;26,59
9821,3;26,58
9825,0;26,58
9828,8;26,56
9832,5;26,55
9836,3;26,53
9840,0;26,52
9843,8;26,50
9847,5;26,49
9851,3;26,48
9855,0;26,48
9858,8;26,48
9862,5;26,48
9866,3;26,49
9870,0;26,50
9873,8;26,52
9877,5;26,55
9881,3;26,57
9885,0;26,60
9888,8;26,63
9892,5;26,65
9896,3;26,67
9900,0;26,68
9903,8;26,69
9907,5;26,68
9911,3;26,68
9915,0;26,67
9918,8;26,65
9922,5;26,64
9926,3;26,63
9930,0;26,62
9933,8;26,62
9937,5;26,61
9941,3;26,61
9945,0;26,61
9948,8;26,60
9952,5;26,60
9956,3;26,59
9960,0;26,58
9963,8;26,58
9967,5;26,58
9971,3;26,58
9975,0;26,58
9978,8;26,58
9982,5;26,59
9986,3;26,59
9990,0;26,60
9993,8;26,61
9997,5;26,61
10001,3;26,62
10005,0;26,62
10008,8;26,62
10012,5;26,63
10016,3;26,63
10020,0;26,64
10023,8;26,65
10027,5;26,65
10031,3;26,66
10035,0;26,66
10038,8;26,67
10042,5;26,67
10046,3;26,67
10050,0;26,67
10053,8;26,67
10057,5;26,66
10061,3;26,66
10065,0;26,66
10068,8;26,66
10072,5;26,66
10076,3;26,66
10080,0;26,66
10083,8;26,66
10087,5;26,66
10091,3;26,65
10095,0;26,65
10098,8;26,64
10102,5;26,64
10106,3;26,63
10110,0;26,63
10113,8;26,63
10117,5;26,64
10121,3;26,64
10125,0;26,65
10128,8;26,65
10132,5;26,65
10136,3;26,64
10140,0;26,64
10143,8;26,62
10147,5;26,61
10151,3;26,59
10155,0;26,57
10158,8;26,55
10162,5;26,53
10166,3;26,52
10170,0;26,51
10173,8;26,51
10177,5;26,51
10181,3;26,51
10185,0;26,51
10188,8;26,52
10192,5;26,52
10196,3;26,53
10200,0;26,53
10203,8;26,54
10207,5;26,55
10211,3;26,55
10215,0;26,56
10218,8;26,57
10222,5;26,57
10226,3;26,58
10230,0;26,58
10233,8;26,58
10237,5;26,58
10241,3;26,57
10245,0;26,56
10248,8;26,54
10252,5;26,52
10256,3;26,51
10260,0;26,49
10263,8;26,48
10267,5;26,46
10271,3;26,46
10275,0;26,45
10278,8;26,45
10282,5;26,44
10286,3;26,44
10290,0;26,44
10293,8;26,44
10297,5;26,43
10301,3;26,43
10305,0;26,43
10308,8;26,43
10312,5;26,43
10316,3;26,43
10320,0;26,44
10323,8;26,44
10327,5;26,45
10331,3;26,46
10335,0;26,47
10338,8;26,48
10342,5;26,48
10346,3;26,49
10350,0;26,49
10353,8;26,49
10357,5;26,49
10361,3;26,49
10365,0;26,49
10368,8;26,50
10372,5;26,51
10376,3;26,51
10380,0;26,52
10383,8;26,53
10387,5;26,53
10391,3;26,54
10395,0;26,54
10398,8;26,54
10402,5;26,54
10406,3;26,53
10410,0;26,53
10413,8;26,52
10417,5;26,51
10421,3;26,50
10425,0;26,50
10428,8;26,50
10432,5;26,49
10436,3;26,50
10440,0;26,50
10443,8;26,50
10447,5;26,51
10451,3;26,52
10455,0;26,52
10458,8;26,53
10462,5;26,53
10466,3;26,53
10470,0;26,52
10473,8;26,51
10477,5;26,50
10481,3;26,49
10485,0;26,47
10488,8;26,46
10492,5;26,44
10496,3;26,43
10500,0;26,42
10503,8;26,41
10507,5;26,41
10511,3;26,40
10515,0;26,41
10518,8;26,41
10522,5;26,41
10526,3;26,42
10530,0;26,43
10533,8;26,44
10537,5;26,45
10541,3;26,47
10545,0;26,49
10548,8;26,50
10552,5;26,52
10556,3;26,54
10560,0;26,55
10563,8;26,56
10567,5;26,57
10571,3;26,57
10575,0;26,57
10578,8;26,57
10582,5;26,56
10586,3;26,56
10590,0;26,56
10593,8;26,56
10597,5;26,56
10601,3;26,57
10605,0;26,58
10608,8;26,59
10612,5;26,59
10616,3;26,60
10620,0;26,60
10623,8;26,60
10627,5;26,59
10631,3;26,58
10635,0;26,57
10638,8;26,55
10642,5;26,53
10646,3;26,51
10650,0;26,49
10653,8;26,48
10657,5;26,46
10661,3;26,45
10665,0;26,44
10668,8;26,43
10672,5;26,43
10676,3;26,43
10680,0;26,43
10683,8;26,44
10687,5;26,45
10691,3;26,46
10695,0;26,47
10698,8;26,48
10702,5;26,49
10706,3;26,50
10710,0;26,51
10713,8;26,51
10717,5;26,51
10721,3;26,50
10725,0;26,50
10728,8;26,49
10732,5;26,48
10736,3;26,47
10740,0;26,46
10743,8;26,46
10747,5;26,46
10751,3;26,46
10755,0;26,47
10758,8;26,47
10762,5;26,48
10766,3;26,48
10770,0;26,48
10773,8;26,48
10777,5;26,48
10781,3;26,48
10785,0;26,47
10788,8;26,47
10792,5;26,47
10796,3;26,46
10800,0;26,46
10803,8;26,46
10807,5;26,46
10811,3;26,45
10815,0;26,45
10818,8;26,45
10822,5;26,44
10826,3;26,44
10830,0;26,43
10833,8;26,42
10837,5;26,41
10841,3;26,40
10845,0;26,39
10848,8;26,37
10852,5;26,36
10856,3;26,35
10860,0;26,34
10863,8;26,33
10867,5;26,32
10871,3;26,32
10875,0;26,31
10878,8;26,31
10882,5;26,30
10886,3;26,30
10890,0;26,30
10893,8;26,31
10897,5;26,31
10901,3;26,31
10905,0;26,32
10908,8;26,32
10912,5;26,32
10916,3;26,32
10920,0;26,31
10923,8;26,31
10927,5;26,31
10931,3;26,31
10935,0;26,31
10938,8;26,31
10942,5;26,32
10946,3;26,32
10950,0;26,33
10953,8;26,34
10957,5;26,34
10961,3;26,35
10965,0;26,35
10968,8;26,34
10972,5;26,34
10976,3;26,33
10980,0;26,32
10983,8;26,31
10987,5;26,30
10991,3;26,30
10995,0;26,29
10998,8;26,30
11002,5;26,30
11006,3;26,31
11010,0;26,32
11013,8;26,33
11017,5;26,34
11021,3;26,35
11025,0;26,36
11028,8;26,36
11032,5;26,36
11036,3;26,36
11040,0;26,35
11043,8;26,35
11047,5;26,33
11051,3;26,32
11055,0;26,31
11058,8;26,30
11062,5;26,29
11066,3;26,28
11070,0;26,27
11073,8;26,27
11077,5;26,27
11081,3;26,27
11085,0;26,28
11088,8;26,29
11092,5;26,30
11096,3;26,32
11100,0;26,33
11103,8;26,34
11107,5;26,36
11111,3;26,37
11115,0;26,37
11118,8;26,38
11122,5;26,38
11126,3;26,37
11130,0;26,36
11133,8;26,35
11137,5;26,34
11141,3;26,32
11145,0;26,30
11148,8;26,28
11152,5;26,27
11156,3;26,25
11160,0;26,23
11163,8;26,21
11167,5;26,19
11171,3;26,18
11175,0;26,17
11178,8;26,16
11182,5;26,16
11186,3;26,16
11190,0;26,17
11193,8;26,18
11197,5;26,20
11201,3;26,21
11205,0;26,23
11208,8;26,25
11212,5;26,27
11216,3;26,28
11220,0;26,29
11223,8;26,30
11227,5;26,31
11231,3;26,31
11235,0;26,30
11238,8;26,30
11242,5;26,29
11246,3;26,28
11250,0;26,28
11253,8;26,27
11257,5;26,27
11261,3;26,26
11265,0;26,26
11268,8;26,26
11272,5;26,26
11276,3;26,26
11280,0;26,25
11283,8;26,25
11287,5;26,25
11291,3;26,24
11295,0;26,24
11298,8;26,23
11302,5;26,22
11306,3;26,22
11310,0;26,21
11313,8;26,21
11317,5;26,21
11321,3;26,21
11325,0;26,21
11328,8;26,21
11332,5;26,21
11336,3;26,21
11340,0;26,21
11343,8;26,21
11347,5;26,22
11351,3;26,22
11355,0;26,22
11358,8;26,23
11362,5;26,23
11366,3;26,23
11370,0;26,24
11373,8;26,24
11377,5;26,24
11381,3;26,24
11385,0;26,25
11388,8;26,25
11392,5;26,25
11396,3;26,25
11400,0;26,25
11403,8;26,25
11407,5;26,26
11411,3;26,26
11415,0;26,26
11418,8;26,27
11422,5;26,28
11426,3;26,29
11430,0;26,30
11433,8;26,31
11437,5;26,32
11441,3;26,34
11445,0;26,35
11448,8;26,37
11452,5;26,39
11456,3;26,40
11460,0;26,41
11463,8;26,43
11467,5;26,44
11471,3;26,44
11475,0;26,45
11478,8;26,45
11482,5;26,44
11486,3;26,44
11490,0;26,43
11493,8;26,42
11497,5;26,40
11501,3;26,39
11505,0;26,38
11508,8;26,36
11512,5;26,35
11516,3;26,33
11520,0;26,32
11523,8;26,31
11527,5;26,31
11531,3;26,31
11535,0;26,31
11538,8;26,31
11542,5;26,31
11546,3;26,32
11550,0;26,33
11553,8;26,34
11557,5;26,35
11561,3;26,36
11565,0;26,38
11568,8;26,39
11572,5;26,40
11576,3;26,41
11580,0;26,42
11583,8;26,43
11587,5;26,43
11591,3;26,44
11595,0;26,44
11598,8;26,43
11602,5;26,43
11606,3;26,42
11610,0;26,41
11613,8;26,39
11617,5;26,38
11621,3;26,36
11625,0;26,35
11628,8;26,33
11632,5;26,32
11636,3;26,30
11640,0;26,29
11643,8;26,29
11647,5;26,28
11651,3;26,28
11655,0;26,29
11658,8;26,29
11662,5;26,31
11666,3;26,32
11670,0;26,34
11673,8;26,36
11677,5;26,38
11681,3;26,40
11685,0;26,42
11688,8;26,44
11692,5;26,46
11696,3;26,47
11700,0;26,49
11703,8;26,50
11707,5;26,51
11711,3;26,52
11715,0;26,53
11718,8;26,53
11722,5;26,54
11726,3;26,54
11730,0;26,55
11733,8;26,55
11737,5;26,56
11741,3;26,57
11745,0;26,58
11748,8;26,59
11752,5;26,60
11756,3;26,61
11760,0;26,63
11763,8;26,64
11767,5;26,66
11771,3;26,67
11775,0;26,69
11778,8;26,70
11782,5;26,72
11786,3;26,73
11790,0;26,74
11793,8;26,75
11797,5;26,76
11801,3;26,77
11805,0;26,77
11808,8;26,78
11812,5;26,78
11816,3;26,78
11820,0;26,78
11823,8;26,77
11827,5;26,77
11831,3;26,77
11835,0;26,76
11838,8;26,76
11842,5;26,75
11846,3;26,75
11850,0;26,75
11853,8;26,74
11857,5;26,74
11861,3;26,74
11865,0;26,74
11868,8;26,74
11872,5;26,74
11876,3;26,74
11880,0;26,74
11883,8;26,73
11887,5;26,73
11891,3;26,72
11895,0;26,71
11898,8;26,70
11902,5;26,69
11906,3;26,67
11910,0;26,66
11913,8;26,65
11917,5;26,63
11921,3;26,62
11925,0;26,61
11928,8;26,60
11932,5;26,59
11936,3;26,59
11940,0;26,59
11943,8;26,58
11947,5;26,59
11951,3;26,59
11955,0;26,59
11958,8;26,59
11962,5;26,59
11966,3;26,60
11970,0;26,60
11973,8;26,60
11977,5;26,60
11981,3;26,60
11985,0;26,60
11988,8;26,60
11992,5;26,60
11996,3;26,60
12000,0;26,60
12003,8;26,60
12007,5;26,60
12011,3;26,60
12015,0;26,60
12018,8;26,60
12022,5;26,61
12026,3;26,61
12030,0;26,62
12033,8;26,62
12037,5;26,63
12041,3;26,64
12045,0;26,64
12048,8;26,65
12052,5;26,65
12056,3;26,65
12060,0;26,65
12063,8;26,65
12067,5;26,65
12071,3;26,64
12075,0;26,64
12078,8;26,63
12082,5;26,62
12086,3;26,62
12090,0;26,61
12093,8;26,61
12097,5;26,60
12101,3;26,60
12105,0;26,60
12108,8;26,60
12112,5;26,59
12116,3;26,59
12120,0;26,59
12123,8;26,59
12127,5;26,58
12131,3;26,57
12135,0;26,57
12138,8;26,56
12142,5;26,55
12146,3;26,53
12150,0;26,52
12153,8;26,51
12157,5;26,49
12161,3;26,48
12165,0;26,47
12168,8;26,46
12172,5;26,44
12176,3;26,43
12180,0;26,42
12183,8;26,41
12187,5;26,41
12191,3;26,40
12195,0;26,40
12198,8;26,39
12202,5;26,39
12206,3;26,40
12210,0;26,40
12213,8;26,41
12217,5;26,42
12221,3;26,43
12225,0;26,45
12228,8;26,46
12232,5;26,48
12236,3;26,50
12240,0;26,52
12243,8;26,53
12247,5;26,55
12251,3;26,56
12255,0;26,57
12258,8;26,58
12262,5;26,58
12266,3;26,58
12270,0;26,57
12273,8;26,56
12277,5;26,55
12281,3;26,54
12285,0;26,52
12288,8;26,51
12292,5;26,49
12296,3;26,48
12300,0;26,47
12303,8;26,45
12307,5;26,45
12311,3;26,44
12315,0;26,43
12318,8;26,43
12322,5;26,43
12326,3;26,43
12330,0;26,44
12333,8;26,44
12337,5;26,45
12341,3;26,46
12345,0;26,47
12348,8;26,48
12352,5;26,49
12356,3;26,50
12360,0;26,52
12363,8;26,53
12367,5;26,55
12371,3;26,56
12375,0;26,58
12378,8;26,60
12382,5;26,61
12386,3;26,62
12390,0;26,64
12393,8;26,65
12397,5;26,65
12401,3;26,66
12405,0;26,66
12408,8;26,67
12412,5;26,67
12416,3;26,67
12420,0;26,67
12423,8;26,67
12427,5;26,67
12431,3;26,67
12435,0;26,67
12438,8;26,67
12442,5;26,68
12446,3;26,68
12450,0;26,68
12453,8;26,69
12457,5;26,70
12461,3;26,70
12465,0;26,71
12468,8;26,71
12472,5;26,72
12476,3;26,72
12480,0;26,72
12483,8;26,72
12487,5;26,72
12491,3;26,72
12495,0;26,72
12498,8;26,72
12502,5;26,71
12506,3;26,71
12510,0;26,71
12513,8;26,71
12517,5;26,70
12521,3;26,70
12525,0;26,70
12528,8;26,71
12532,5;26,71
12536,3;26,71
12540,0;26,72
12543,8;26,72
12547,5;26,73
12551,3;26,73
12555,0;26,74
12558,8;26,74
12562,5;26,74
12566,3;26,75
12570,0;26,75
12573,8;26,75
12577,5;26,75
12581,3;26,74
12585,0;26,74
12588,8;26,74
12592,5;26,74
12596,3;26,74
12600,0;26,74
12603,8;26,74
12607,5;26,74
12611,3;26,75
12615,0;26,75
12618,8;26,75
12622,5;26,76
12626,3;26,76
12630,0;26,76
12633,8;26,76
12637,5;26,77
12641,3;26,77
12645,0;26,77
12648,8;26,77
12652,5;26,77
12656,3;26,77
12660,0;26,76
12663,8;26,76
12667,5;26,76
12671,3;26,76
12675,0;26,76
12678,8;26,76
12682,5;26,76
12686,3;26,76
12690,0;26,76
12693,8;26,76
12697,5;26,76
12701,3;26,76
12705,0;26,76
12708,8;26,75
12712,5;26,75
12716,3;26,74
12720,0;26,74
12723,8;26,73
12727,5;26,72
12731,3;26,71
12735,0;26,71
12738,8;26,70
12742,5;26,69
12746,3;26,68
12750,0;26,68
12753,8;26,68
12757,5;26,68
12761,3;26,68
12765,0;26,68
12768,8;26,68
12772,5;26,69
12776,3;26,69
12780,0;26,70
12783,8;26,70
12787,5;26,71
12791,3;26,72
12795,0;26,72
12798,8;26,73
12802,5;26,74
12806,3;26,74
12810,0;26,75
12813,8;26,75
12817,5;26,76
12821,3;26,76
12825,0;26,77
12828,8;26,77
12832,5;26,78
12836,3;26,78
12840,0;26,79
12843,8;26,79
12847,5;26,80
12851,3;26,80
12855,0;26,80
12858,8;26,80
12862,5;26,81
12866,3;26,81
12870,0;26,81
12873,8;26,81
12877,5;26,81
12881,3;26,80
12885,0;26,80
12888,8;26,80
12892,5;26,80
12896,3;26,80
12900,0;26,79
12903,8;26,79
12907,5;26,78
12911,3;26,78
12915,0;26,77
12918,8;26,76
12922,5;26,75
12926,3;26,74
12930,0;26,73
12933,8;26,72
12937,5;26,70
12941,3;26,69
12945,0;26,67
12948,8;26,65
12952,5;26,64
12956,3;26,62
12960,0;26,60
12963,8;26,59
12967,5;26,58
12971,3;26,57
12975,0;26,57
12978,8;26,56
12982,5;26,56
12986,3;26,57
12990,0;26,57
12993,8;26,58
12997,5;26,59
13001,3;26,61
13005,0;26,62
13008,8;26,64
13012,5;26,65
13016,3;26,66
13020,0;26,68
13023,8;26,69
13027,5;26,70
13031,3;26,71
13035,0;26,72
13038,8;26,73
13042,5;26,74
13046,3;26,75
13050,0;26,76
13053,8;26,76
13057,5;26,77
13061,3;26,78
13065,0;26,79
13068,8;26,80
13072,5;26,81
13076,3;26,82
13080,0;26,83
13083,8;26,83
13087,5;26,84
13091,3;26,84
13095,0;26,84
13098,8;26,84
13102,5;26,84
13106,3;26,83
13110,0;26,82
13113,8;26,81
13117,5;26,80
13121,3;26,78
13125,0;26,76
13128,8;26,75
13132,5;26,73
13136,3;26,72
13140,0;26,71
13143,8;26,69
13147,5;26,69
13151,3;26,68
13155,0;26,68
13158,8;26,69
13162,5;26,69
13166,3;26,69
13170,0;26,70
13173,8;26,71
13177,5;26,72
13181,3;26,73
13185,0;26,73
13188,8;26,74
13192,5;26,74
13196,3;26,74
13200,0;26,74
13203,8;26,74
13207,5;26,74
13211,3;26,73
13215,0;26,73
13218,8;26,73
13222,5;26,73
13226,3;26,73
13230,0;26,73
13233,8;26,74
13237,5;26,74
13241,3;26,75
13245,0;26,76
13248,8;26,78
13252,5;26,79
13256,3;26,80
13260,0;26,81
13263,8;26,83
13267,5;26,84
13271,3;26,84
13275,0;26,85
13278,8;26,85
13282,5;26,85
13286,3;26,85
13290,0;26,84
13293,8;26,83
13297,5;26,82
13301,3;26,81
13305,0;26,80
13308,8;26,79
13312,5;26,78
13316,3;26,77
13320,0;26,76
13323,8;26,75
13327,5;26,75
13331,3;26,74
13335,0;26,74
13338,8;26,74
13342,5;26,74
13346,3;26,74
13350,0;26,74
13353,8;26,74
13357,5;26,74
13361,3;26,74
13365,0;26,74
13368,8;26,74
13372,5;26,73
13376,3;26,73
13380,0;26,72
13383,8;26,72
13387,5;26,71
13391,3;26,70
13395,0;26,70
13398,8;26,69
13402,5;26,68
13406,3;26,68
13410,0;26,67
13413,8;26,67
13417,5;26,67
13421,3;26,67
13425,0;26,67
13428,8;26,66
13432,5;26,66
13436,3;26,66
13440,0;26,66
13443,8;26,66
13447,5;26,66
13451,3;26,65
13455,0;26,65
13458,8;26,64
13462,5;26,63
13466,3;26,62
13470,0;26,61
13473,8;26,60
13477,5;26,59
13481,3;26,57
13485,0;26,56
13488,8;26,55
13492,5;26,54
13496,3;26,53
13500,0;26,53
13503,8;26,52
13507,5;26,52
13511,3;26,52
13515,0;26,51
13518,8;26,51
13522,5;26,52
13526,3;26,52
13530,0;26,52
13533,8;26,52
13537,5;26,53
13541,3;26,53
13545,0;26,54
13548,8;26,54
13552,5;26,54
13556,3;26,55
13560,0;26,55
13563,8;26,55
13567,5;26,56
13571,3;26,56
13575,0;26,57
13578,8;26,58
13582,5;26,59
13586,3;26,60
13590,0;26,61
13593,8;26,62
13597,5;26,63
13601,3;26,65
13605,0;26,66
13608,8;26,68
13612,5;26,69
13616,3;26,71
13620,0;26,72
13623,8;26,73
13627,5;26,74
13631,3;26,75
13635,0;26,76
13638,8;26,77
13642,5;26,77
13646,3;26,78
13650,0;26,78
13653,8;26,78
13657,5;26,78
13661,3;26,78
13665,0;26,78
13668,8;26,79
13672,5;26,79
13676,3;26,79
13680,0;26,79
13683,8;26,80
13687,5;26,80
13691,3;26,81
13695,0;26,82
13698,8;26,83
13702,5;26,84
13706,3;26,84
13710,0;26,85
13713,8;26,86
13717,5;26,87
13721,3;26,88
13725,0;26,89
13728,8;26,90
13732,5;26,90
13736,3;26,91
13740,0;26,91
13743,8;26,92
13747,5;26,92
13751,3;26,93
13755,0;26,93
13758,8;26,93
13762,5;26,94
13766,3;26,94
13770,0;26,94
13773,8;26,94
13777,5;26,95
13781,3;26,95
13785,0;26,95
13788,8;26,95
13792,5;26,95
13796,3;26,96
13800,0;26,96
13803,8;26,96
13807,5;26,96
13811,3;26,96
13815,0;26,96
13818,8;26,96
13822,5;26,96
13826,3;26,95
13830,0;26,95
13833,8;26,95
13837,5;26,95
13841,3;26,96
13845,0;26,96
13848,8;26,96
13852,5;26,97
13856,3;26,98
13860,0;26,98
13863,8;26,99
13867,5;27,00
13871,3;27,01
13875,0;27,03
13878,8;27,04
13882,5;27,05
13886,3;27,06
13890,0;27,07
13893,8;27,08
13897,5;27,09
13901,3;27,10
13905,0;27,10
13908,8;27,11
13912,5;27,11
13916,3;27,12
13920,0;27,12
13923,8;27,13
13927,5;27,13
13931,3;27,14
13935,0;27,14
13938,8;27,15
13942,5;27,16
13946,3;27,17
13950,0;27,19
13953,8;27,20
13957,5;27,22
13961,3;27,24
13965,0;27,25
13968,8;27,27
13972,5;27,29
13976,3;27,31
13980,0;27,33
13983,8;27,35
13987,5;27,37
13991,3;27,39
13995,0;27,40
13998,8;27,42
14002,5;27,43
14006,3;27,44
14010,0;27,45
14013,8;27,45
14017,5;27,46
14021,3;27,47
14025,0;27,47
14028,8;27,47
14032,5;27,48
14036,3;27,48
14040,0;27,49
14043,8;27,49
14047,5;27,50
14051,3;27,50
14055,0;27,50
14058,8;27,51
14062,5;27,51
14066,3;27,52
14070,0;27,52
14073,8;27,52
14077,5;27,52
14081,3;27,52
14085,0;27,52
14088,8;27,52
14092,5;27,52
14096,3;27,52
14100,0;27,51
14103,8;27,51
14107,5;27,51
14111,3;27,51
14115,0;27,51
14118,8;27,51
14122,5;27,51
14126,3;27,51
14130,0;27,52
14133,8;27,53
14137,5;27,54
14141,3;27,55
14145,0;27,56
14148,8;27,57
14152,5;27,58
14156,3;27,60
14160,0;27,61
14163,8;27,62
14167,5;27,64
14171,3;27,65
14175,0;27,65
14178,8;27,66
14182,5;27,67
14186,3;27,67
14190,0;27,67
14193,8;27,67
14197,5;27,67
14201,3;27,66
14205,0;27,66
14208,8;27,65
14212,5;27,65
14216,3;27,64
14220,0;27,64
14223,8;27,63
14227,5;27,63
14231,3;27,63
14235,0;27,63
14238,8;27,62
14242,5;27,62
14246,3;27,63
14250,0;27,63
14253,8;27,63
14257,5;27,63
14261,3;27,63
14265,0;27,63
14268,8;27,63
14272,5;27,64
14276,3;27,64
14280,0;27,64
14283,8;27,64
14287,5;27,63
14291,3;27,63
14295,0;27,63
14298,8;27,63
14302,5;27,63
14306,3;27,63
14310,0;27,63
14313,8;27,64
14317,5;27,64
14321,3;27,64
14325,0;27,65
14328,8;27,65
14332,5;27,66
14336,3;27,67
14340,0;27,68
14343,8;27,69
14347,5;27,70
14351,3;27,70
14355,0;27,71
14358,8;27,72
14362,5;27,73
14366,3;27,74
14370,0;27,74
14373,8;27,75
14377,5;27,76
14381,3;27,76
14385,0;27,76
14388,8;27,76
14392,5;27,77
14396,3;27,77
14400,0;27,77
14403,8;27,77
14407,5;27,77
14411,3;27,77
14415,0;27,78
14418,8;27,78
14422,5;27,79
14426,3;27,79
14430,0;27,80
14433,8;27,81
14437,5;27,82
14441,3;27,83
14445,0;27,84
14448,8;27,85
14452,5;27,86
14456,3;27,87
14460,0;27,87
14463,8;27,88
14467,5;27,89
14471,3;27,89
14475,0;27,89
14478,8;27,90
14482,5;27,90
14486,3;27,90
14490,0;27,90
14493,8;27,90
14497,5;27,90
14501,3;27,90
14505,0;27,90
14508,8;27,90
14512,5;27,90
14516,3;27,90
14520,0;27,91
14523,8;27,92
14527,5;27,93
14531,3;27,94
14535,0;27,95
14538,8;27,96
14542,5;27,98
14546,3;27,99
14550,0;28,00
14553,8;28,02
14557,5;28,03
14561,3;28,04
14565,0;28,04
14568,8;28,04
14572,5;28,04
14576,3;28,04
14580,0;28,03
14583,8;28,03
14587,5;28,01
14591,3;28,00
14595,0;27,98
14598,8;27,96
14602,5;27,94
14606,3;27,93
14610,0;27,91
14613,8;27,89
14617,5;27,87
14621,3;27,86
14625,0;27,84
14628,8;27,83
14632,5;27,83
14636,3;27,82
14640,0;27,82
14643,8;27,82
14647,5;27,82
14651,3;27,83
14655,0;27,84
14658,8;27,84
14662,5;27,85
14666,3;27,86
14670,0;27,87
14673,8;27,88
14677,5;27,89
14681,3;27,90
14685,0;27,91
14688,8;27,92
14692,5;27,93
14696,3;27,94
14700,0;27,94
14703,8;27,95
14707,5;27,95
14711,3;27,96
14715,0;27,97
14718,8;27,98
14722,5;27,98
14726,3;27,99
14730,0;28,00
14733,8;28,01
14737,5;28,02
14741,3;28,02
14745,0;28,03
14748,8;28,04
14752,5;28,05
14756,3;28,06
14760,0;28,06
14763,8;28,07
14767,5;28,07
14771,3;28,07
14775,0;28,07
14778,8;28,07
14782,5;28,06
14786,3;28,05
14790,0;28,04
14793,8;28,03
14797,5;28,02
14801,3;28,01
14805,0;28,00
14808,8;27,98
14812,5;27,97
14816,3;27,96
14820,0;27,94
14823,8;27,93
14827,5;27,93
14831,3;27,92
14835,0;27,91
14838,8;27,91
14842,5;27,91
14846,3;27,91
14850,0;27,91
14853,8;27,92
14857,5;27,92
14861,3;27,93
14865,0;27,94
14868,8;27,95
14872,5;27,96
14876,3;27,96
14880,0;27,97
14883,8;27,98
14887,5;27,99
14891,3;28,00
14895,0;28,00
14898,8;28,01
14902,5;28,01
14906,3;28,01
14910,0;28,01
14913,8;28,01
14917,5;28,01
14921,3;28,00
14925,0;27,99
14928,8;27,98
14932,5;27,97
14936,3;27,96
14940,0;27,94
14943,8;27,92
14947,5;27,90
14951,3;27,87
14955,0;27,84
14958,8;27,81
14962,5;27,78
14966,3;27,74
14970,0;27,71
14973,8;27,67
14977,5;27,63
14981,3;27,59
14985,0;27,55
14988,8;27,51
14992,5;27,47
14996,3;27,44
15000,0;27,42
15003,8;27,40
15007,5;27,39
15011,3;27,38
15015,0;27,38
15018,8;27,38
15022,5;27,39
15026,3;27,41
15030,0;27,43
15033,8;27,47
15037,5;27,50
15041,3;27,54
15045,0;27,58
15048,8;27,63
15052,5;27,67
15056,3;27,72
15060,0;27,77
15063,8;27,82
15067,5;27,86
15071,3;27,90
15075,0;27,94
15078,8;27,98
15082,5;28,02
15086,3;28,05
15090,0;28,08
15093,8;28,10
15097,5;28,12
15101,3;28,14
15105,0;28,15
15108,8;28,16
15112,5;28,16
15116,3;28,17
15120,0;28,16
15123,8;28,16
15127,5;28,15
15131,3;28,15
15135,0;28,14
15138,8;28,13
15142,5;28,12
15146,3;28,11
15150,0;28,11
15153,8;28,10
15157,5;28,09
15161,3;28,08
15165,0;28,08
15168,8;28,08
15172,5;28,07
15176,3;28,07
15180,0;28,07
15183,8;28,07
15187,5;28,07
15191,3;28,07
15195,0;28,06
15198,8;28,06
15202,5;28,06
15206,3;28,06
15210,0;28,05
15213,8;28,05
15217,5;28,04
15221,3;28,03
15225,0;28,03
15228,8;28,02
15232,5;28,01
15236,3;28,00
15240,0;28,00
15243,8;27,99
15247,5;27,98
15251,3;27,98
15255,0;27,98
15258,8;27,98
15262,5;27,98
15266,3;27,98
15270,0;27,99
15273,8;27,99
15277,5;28,00
15281,3;28,02
15285,0;28,03
15288,8;28,05
15292,5;28,07
15296,3;28,08
15300,0;28,10
15303,8;28,12
15307,5;28,14
15311,3;28,15
15315,0;28,17
15318,8;28,18
15322,5;28,20
15326,3;28,21
15330,0;28,21
15333,8;28,22
15337,5;28,22
15341,3;28,23
15345,0;28,23
15348,8;28,23
15352,5;28,23
15356,3;28,22
15360,0;28,22
15363,8;28,21
15367,5;28,21
15371,3;28,20
15375,0;28,20
15378,8;28,20
15382,5;28,20
15386,3;28,20
15390,0;28,20
15393,8;28,20
15397,5;28,20
15401,3;28,20
15405,0;28,21
15408,8;28,21
15412,5;28,22
15416,3;28,22
15420,0;28,23
15423,8;28,23
15427,5;28,24
15431,3;28,24
15435,0;28,25
15438,8;28,25
15442,5;28,25
15446,3;28,25
15450,0;28,25
15453,8;28,25
15457,5;28,24
15461,3;28,24
15465,0;28,24
15468,8;28,23
15472,5;28,23
15476,3;28,22
15480,0;28,22
15483,8;28,21
15487,5;28,21
15491,3;28,21
15495,0;28,21
15498,8;28,21
15502,5;28,21
15506,3;28,21
15510,0;28,21
15513,8;28,21
15517,5;28,21
15521,3;28,21
15525,0;28,21
15528,8;28,21
15532,5;28,21
15536,3;28,21
15540,0;28,21
15543,8;28,21
15547,5;28,21
15551,3;28,20
15555,0;28,20
15558,8;28,20
15562,5;28,19
15566,3;28,19
15570,0;28,18
15573,8;28,18
15577,5;28,18
15581,3;28,17
15585,0;28,17
15588,8;28,17
15592,5;28,17
15596,3;28,18
15600,0;28,18
15603,8;28,19
15607,5;28,19
15611,3;28,20
15615,0;28,21
15618,8;28,23
15622,5;28,24
15626,3;28,25
15630,0;28,27
15633,8;28,28
15637,5;28,29
15641,3;28,30
15645,0;28,31
15648,8;28,32
15652,5;28,33
15656,3;28,34
15660,0;28,34
15663,8;28,34
15667,5;28,33
15671,3;28,33
15675,0;28,32
15678,8;28,31
15682,5;28,30
15686,3;28,29
15690,0;28,28
15693,8;28,26
15697,5;28,24
15701,3;28,23
15705,0;28,21
15708,8;28,20
15712,5;28,19
15716,3;28,18
15720,0;28,17
15723,8;28,17
15727,5;28,16
15731,3;28,16
15735,0;28,17
15738,8;28,17
15742,5;28,18
15746,3;28,19
15750,0;28,21
15753,8;28,22
15757,5;28,23
15761,3;28,24
15765,0;28,25
15768,8;28,26
15772,5;28,27
15776,3;28,28
15780,0;28,28
15783,8;28,28
15787,5;28,27
15791,3;28,27
15795,0;28,26
15798,8;28,24
15802,5;28,23
15806,3;28,21
15810,0;28,19
15813,8;28,16
15817,5;28,13
15821,3;28,10
15825,0;28,07
15828,8;28,04
15832,5;28,01
15836,3;27,98
15840,0;27,95
15843,8;27,92
15847,5;27,88
15851,3;27,85
15855,0;27,82
15858,8;27,79
15862,5;27,77
15866,3;27,74
15870,0;27,71
15873,8;27,69
15877,5;27,66
15881,3;27,63
15885,0;27,61
15888,8;27,58
15892,5;27,55
15896,3;27,52
15900,0;27,49
15903,8;27,46
15907,5;27,42
15911,3;27,39
15915,0;27,35
15918,8;27,31
15922,5;27,27
15926,3;27,22
15930,0;27,18
15933,8;27,14
15937,5;27,09
15941,3;27,05
15945,0;27,00
15948,8;26,95
15952,5;26,91
15956,3;26,86
15960,0;26,82
15963,8;26,77
15967,5;26,73
15971,3;26,69
15975,0;26,65
15978,8;26,61
15982,5;26,57
15986,3;26,53
15990,0;26,50
15993,8;26,46
15997,5;26,42
16001,3;26,39
16005,0;26,35
16008,8;26,32
16012,5;26,28
16016,3;26,24
16020,0;26,21
16023,8;26,17
16027,5;26,13
16031,3;26,10
16035,0;26,06
16038,8;26,03
16042,5;25,99
16046,3;25,96
16050,0;25,93
16053,8;25,89
16057,5;25,86
16061,3;25,84
16065,0;25,81
16068,8;25,79
16072,5;25,76
16076,3;25,74
16080,0;25,72
16083,8;25,71
16087,5;25,69
16091,3;25,68
16095,0;25,67
16098,8;25,66
16102,5;25,66
16106,3;25,65
16110,0;25,65
16113,8;25,64
16117,5;25,64
16121,3;25,63
16125,0;25,63
16128,8;25,63
16132,5;25,63
16136,3;25,63
16140,0;25,62
16143,8;25,62
16147,5;25,61
16151,3;25,61
16155,0;25,60
16158,8;25,59
16162,5;25,59
16166,3;25,58
16170,0;25,57
16173,8;25,57
16177,5;25,56
16181,3;25,55
16185,0;25,54
16188,8;25,54
16192,5;25,53
16196,3;25,53
16200,0;25,53
16203,8;25,52
16207,5;25,52
16211,3;25,52
16215,0;25,52
16218,8;25,52
16222,5;25,53
16226,3;25,53
16230,0;25,54
16233,8;25,54
16237,5;25,55
16241,3;25,55
16245,0;25,56
16248,8;25,56
16252,5;25,57
16256,3;25,57
16260,0;25,58
16263,8;25,58
16267,5;25,59
16271,3;25,59
16275,0;25,59
16278,8;25,58
16282,5;25,58
16286,3;25,58
16290,0;25,57
16293,8;25,56
16297,5;25,56
16301,3;25,55
16305,0;25,53
16308,8;25,52
16312,5;25,51
16316,3;25,50
16320,0;25,48
16323,8;25,47
16327,5;25,46
16331,3;25,45
16335,0;25,44
16338,8;25,43
16342,5;25,42
16346,3;25,41
16350,0;25,41
16353,8;25,41
16357,5;25,40
16361,3;25,40
16365,0;25,41
16368,8;25,41
16372,5;25,41
16376,3;25,41
16380,0;25,42
16383,8;25,43
16387,5;25,44
16391,3;25,45
16395,0;25,46
16398,8;25,46
16402,5;25,47
16406,3;25,48
16410,0;25,49
16413,8;25,50
16417,5;25,50
16421,3;25,51
16425,0;25,52
16428,8;25,53
16432,5;25,53
16436,3;25,54
16440,0;25,54
16443,8;25,55
16447,5;25,55
16451,3;25,56
16455,0;25,57
16458,8;25,58
16462,5;25,59
16466,3;25,61
16470,0;25,62
16473,8;25,64
16477,5;25,66
16481,3;25,67
16485,0;25,70
16488,8;25,72
16492,5;25,75
16496,3;25,78
16500,0;25,81
16503,8;25,84
16507,5;25,86
16511,3;25,89
16515,0;25,92
16518,8;25,95
16522,5;25,98
16526,3;26,01
16530,0;26,04
16533,8;26,07
16537,5;26,10
16541,3;26,12
16545,0;26,14
16548,8;26,16
16552,5;26,17
16556,3;26,19
16560,0;26,21
16563,8;26,22
16567,5;26,23
16571,3;26,24
16575,0;26,25
16578,8;26,26
16582,5;26,26
16586,3;26,27
16590,0;26,28
16593,8;26,29
16597,5;26,31
16601,3;26,32
16605,0;26,33
16608,8;26,35
16612,5;26,37
16616,3;26,38
16620,0;26,41
16623,8;26,43
16627,5;26,45
16631,3;26,48
16635,0;26,51
16638,8;26,54
16642,5;26,57
16646,3;26,60
16650,0;26,63
16653,8;26,66
16657,5;26,69
16661,3;26,72
16665,0;26,76
16668,8;26,79
16672,5;26,81
16676,3;26,84
16680,0;26,87
16683,8;26,89
16687,5;26,91
16691,3;26,93
16695,0;26,95
16698,8;26,97
16702,5;26,99
16706,3;27,01
16710,0;27,03
16713,8;27,04
16717,5;27,06
16721,3;27,07
16725,0;27,09
16728,8;27,10
16732,5;27,12
16736,3;27,13
16740,0;27,15
16743,8;27,17
16747,5;27,19
16751,3;27,20
16755,0;27,22
16758,8;27,24
16762,5;27,26
16766,3;27,28
16770,0;27,29
16773,8;27,31
16777,5;27,33
16781,3;27,35
16785,0;27,36
16788,8;27,37
16792,5;27,38
16796,3;27,39
16800,0;27,40
16803,8;27,41
16807,5;27,41
16811,3;27,42
16815,0;27,42
16818,8;27,43
16822,5;27,43
16826,3;27,43
16830,0;27,42
16833,8;27,42
16837,5;27,42
16841,3;27,42
16845,0;27,42
16848,8;27,42
16852,5;27,43
16856,3;27,43
16860,0;27,43
16863,8;27,44
16867,5;27,45
16871,3;27,46
16875,0;27,47
16878,8;27,49
16882,5;27,51
16886,3;27,53
16890,0;27,56
16893,8;27,58
16897,5;27,61
16901,3;27,63
16905,0;27,66
16908,8;27,69
16912,5;27,72
16916,3;27,75
16920,0;27,78
16923,8;27,81
16927,5;27,84
16931,3;27,87
16935,0;27,89
16938,8;27,91
16942,5;27,94
16946,3;27,96
16950,0;27,98
16953,8;27,99
16957,5;28,01
16961,3;28,02
16965,0;28,03
16968,8;28,04
16972,5;28,05
16976,3;28,06
16980,0;28,06
16983,8;28,07
16987,5;28,08
16991,3;28,08
16995,0;28,09
16998,8;28,10
17002,5;28,10
17006,3;28,11
17010,0;28,12
17013,8;28,12
17017,5;28,13
17021,3;28,14
17025,0;28,15
17028,8;28,17
17032,5;28,18
17036,3;28,19
17040,0;28,20
17043,8;28,21
17047,5;28,22
17051,3;28,23
17055,0;28,23
17058,8;28,24
17062,5;28,25
17066,3;28,25
17070,0;28,26
17073,8;28,26
17077,5;28,25
17081,3;28,25
17085,0;28,24
17088,8;28,23
17092,5;28,22
17096,3;28,21
17100,0;28,20
17103,8;28,19
17107,5;28,18
17111,3;28,16
17115,0;28,15
17118,8;28,13
17122,5;28,11
17126,3;28,10
17130,0;28,09
17133,8;28,08
17137,5;28,08
17141,3;28,07
17145,0;28,07
17148,8;28,07
17152,5;28,07
17156,3;28,07
17160,0;28,08
17163,8;28,09
17167,5;28,10
17171,3;28,12
17175,0;28,14
17178,8;28,16
17182,5;28,18
17186,3;28,20
17190,0;28,22
17193,8;28,24
17197,5;28,27
17201,3;28,29
17205,0;28,31
17208,8;28,33
17212,5;28,35
17216,3;28,37
17220,0;28,39
17223,8;28,40
17227,5;28,41
17231,3;28,42
17235,0;28,43
17238,8;28,43
17242,5;28,43
17246,3;28,44
17250,0;28,44
17253,8;28,44
17257,5;28,43
17261,3;28,43
17265,0;28,42
17268,8;28,42
17272,5;28,41
17276,3;28,41
17280,0;28,40
17283,8;28,40
17287,5;28,40
17291,3;28,40
17295,0;28,40
17298,8;28,41
17302,5;28,41
17306,3;28,42
17310,0;28,42
17313,8;28,43
17317,5;28,44
17321,3;28,45
17325,0;28,47
17328,8;28,48
17332,5;28,50
17336,3;28,51
17340,0;28,53
17343,8;28,54
17347,5;28,55
17351,3;28,56
17355,0;28,57
17358,8;28,58
17362,5;28,59
17366,3;28,60
17370,0;28,61
17373,8;28,61
17377,5;28,61
17381,3;28,61
17385,0;28,61
17388,8;28,61
17392,5;28,60
17396,3;28,60
17400,0;28,59
17403,8;28,59
17407,5;28,58
17411,3;28,57
17415,0;28,56
17418,8;28,55
17422,5;28,54
17426,3;28,53
17430,0;28,53
17433,8;28,52
17437,5;28,52
17441,3;28,51
17445,0;28,51
17448,8;28,51
17452,5;28,51
17456,3;28,51
17460,0;28,51
17463,8;28,51
17467,5;28,51
17471,3;28,51
17475,0;28,51
17478,8;28,51
17482,5;28,51
17486,3;28,52
17490,0;28,52
17493,8;28,51
17497,5;28,51
17501,3;28,51
17505,0;28,50
17508,8;28,50
17512,5;28,49
17516,3;28,48
17520,0;28,47
17523,8;28,46
17527,5;28,45
17531,3;28,44
17535,0;28,42
17538,8;28,40
17542,5;28,39
17546,3;28,37
17550,0;28,35
17553,8;28,34
17557,5;28,33
17561,3;28,31
17565,0;28,30
17568,8;28,28
17572,5;28,27
17576,3;28,26
17580,0;28,25
17583,8;28,24
17587,5;28,23
17591,3;28,23
17595,0;28,22
17598,8;28,22
17602,5;28,22
17606,3;28,23
17610,0;28,23
17613,8;28,23
17617,5;28,23
17621,3;28,24
17625,0;28,24
17628,8;28,25
17632,5;28,26
17636,3;28,27
17640,0;28,28
17643,8;28,28
17647,5;28,29
17651,3;28,29
17655,0;28,30
17658,8;28,30
17662,5;28,31
17666,3;28,31
17670,0;28,31
17673,8;28,31
17677,5;28,32
17681,3;28,32
17685,0;28,32
17688,8;28,32
17692,5;28,32
17696,3;28,32
17700,0;28,32
17703,8;28,32
17707,5;28,32
17711,3;28,32
17715,0;28,33
17718,8;28,33
17722,5;28,34
17726,3;28,34
17730,0;28,35
17733,8;28,36
17737,5;28,36
17741,3;28,38
17745,0;28,39
17748,8;28,40
17752,5;28,42
17756,3;28,43
17760,0;28,45
17763,8;28,46
17767,5;28,48
17771,3;28,49
17775,0;28,51
17778,8;28,52
17782,5;28,54
17786,3;28,55
17790,0;28,56
17793,8;28,58
17797,5;28,59
17801,3;28,60
17805,0;28,60
17808,8;28,61
17812,5;28,61
17816,3;28,61
17820,0;28,61
17823,8;28,61
17827,5;28,61
17831,3;28,60
17835,0;28,60
17838,8;28,59
17842,5;28,59
17846,3;28,58
17850,0;28,57
17853,8;28,56
17857,5;28,55
17861,3;28,55
17865,0;28,54
17868,8;28,53
17872,5;28,53
17876,3;28,53
17880,0;28,52
17883,8;28,52
17887,5;28,52
17891,3;28,52
17895,0;28,52
17898,8;28,52
17902,5;28,53
17906,3;28,53
17910,0;28,54
17913,8;28,55
17917,5;28,56
17921,3;28,57
17925,0;28,58
17928,8;28,59
17932,5;28,59
17936,3;28,60
17940,0;28,61
17943,8;28,62
17947,5;28,63
17951,3;28,63
17955,0;28,64
17958,8;28,65
17962,5;28,65
17966,3;28,66
17970,0;28,66
17973,8;28,66
17977,5;28,66
17981,3;28,66
17985,0;28,66
17988,8;28,66
17992,5;28,66
17996,3;28,66
18000,0;28,66
18003,8;28,66
18007,5;28,66
18011,3;28,66
18015,0;28,66
18018,8;28,66
18022,5;28,67
18026,3;28,67
18030,0;28,68
18033,8;28,69
18037,5;28,71
18041,3;28,72
18045,0;28,73
18048,8;28,75
18052,5;28,77
18056,3;28,79
18060,0;28,81
18063,8;28,82
18067,5;28,85
18071,3;28,87
18075,0;28,89
18078,8;28,92
18082,5;28,94
18086,3;28,96
18090,0;28,99
18093,8;29,01
18097,5;29,02
18101,3;29,04
18105,0;29,06
18108,8;29,07
18112,5;29,09
18116,3;29,10
18120,0;29,11
18123,8;29,12
18127,5;29,13
18131,3;29,13
18135,0;29,14
18138,8;29,14
18142,5;29,13
18146,3;29,13
18150,0;29,13
18153,8;29,13
18157,5;29,12
18161,3;29,12
18165,0;29,12
18168,8;29,11
18172,5;29,11
18176,3;29,10
18180,0;29,10
18183,8;29,09
18187,5;29,09
18191,3;29,09
18195,0;29,09
18198,8;29,09
18202,5;29,09
18206,3;29,10
18210,0;29,10
18213,8;29,11
18217,5;29,11
18221,3;29,12
18225,0;29,12
18228,8;29,13
18232,5;29,14
18236,3;29,15
18240,0;29,15
18243,8;29,16
18247,5;29,17
18251,3;29,18
18255,0;29,19
18258,8;29,19
18262,5;29,19
18266,3;29,19
18270,0;29,19
18273,8;29,19
18277,5;29,19
18281,3;29,19
18285,0;29,19
18288,8;29,18
18292,5;29,18
18296,3;29,17
18300,0;29,16
18303,8;29,15
18307,5;29,14
18311,3;29,13
18315,0;29,12
18318,8;29,11
18322,5;29,10
18326,3;29,09
18330,0;29,09
18333,8;29,08
18337,5;29,07
18341,3;29,07
18345,0;29,06
18348,8;29,06
18352,5;29,06
18356,3;29,06
18360,0;29,06
18363,8;29,06
18367,5;29,07
18371,3;29,07
18375,0;29,08
18378,8;29,09
18382,5;29,10
18386,3;29,11
18390,0;29,12
18393,8;29,12
18397,5;29,13
18401,3;29,14
18405,0;29,15
18408,8;29,16
18412,5;29,16
18416,3;29,17
18420,0;29,17
18423,8;29,18
18427,5;29,18
18431,3;29,17
18435,0;29,17
18438,8;29,16
18442,5;29,15
18446,3;29,14
18450,0;29,13
18453,8;29,11
18457,5;29,10
18461,3;29,08
18465,0;29,06
18468,8;29,04
18472,5;29,02
18476,3;29,00
18480,0;28,97
18483,8;28,95
18487,5;28,92
18491,3;28,90
18495,0;28,88
18498,8;28,87
18502,5;28,85
18506,3;28,84
18510,0;28,82
18513,8;28,81
18517,5;28,80
18521,3;28,79
18525,0;28,78
18528,8;28,78
18532,5;28,78
18536,3;28,78
18540,0;28,79
18543,8;28,79
18547,5;28,80
18551,3;28,81
18555,0;28,83
18558,8;28,84
18562,5;28,85
18566,3;28,86
18570,0;28,88
18573,8;28,89
18577,5;28,91
18581,3;28,93
18585,0;28,94
18588,8;28,96
18592,5;28,97
18596,3;28,99
18600,0;29,00
18603,8;29,00
18607,5;29,01
18611,3;29,01
18615,0;29,01
18618,8;29,02
18622,5;29,02
18626,3;29,02
18630,0;29,01
18633,8;29,01
18637,5;29,01
18641,3;29,00
18645,0;28,99
18648,8;28,98
18652,5;28,97
18656,3;28,96
18660,0;28,95
18663,8;28,94
18667,5;28,94
18671,3;28,93
18675,0;28,93
18678,8;28,93
18682,5;28,92
18686,3;28,92
18690,0;28,92
18693,8;28,92
18697,5;28,92
18701,3;28,93
18705,0;28,93
18708,8;28,94
18712,5;28,95
18716,3;28,96
18720,0;28,97
18723,8;28,99
18727,5;29,00
18731,3;29,02
18735,0;29,03
18738,8;29,04
18742,5;29,05
18746,3;29,07
18750,0;29,08
18753,8;29,09
18757,5;29,11
18761,3;29,12
18765,0;29,13
18768,8;29,14
18772,5;29,15
18776,3;29,16
18780,0;29,17
18783,8;29,17
18787,5;29,17
18791,3;29,18
18795,0;29,18
18798,8;29,18
18802,5;29,19
18806,3;29,19
18810,0;29,20
18813,8;29,21
18817,5;29,21
18821,3;29,22
18825,0;29,22
18828,8;29,23
18832,5;29,24
18836,3;29,25
18840,0;29,26
18843,8;29,28
18847,5;29,29
18851,3;29,31
18855,0;29,34
18858,8;29,36
18862,5;29,38
18866,3;29,41
18870,0;29,44
18873,8;29,46
18877,5;29,49
18881,3;29,52
18885,0;29,54
18888,8;29,57
18892,5;29,61
18896,3;29,64
18900,0;29,67
18903,8;29,70
18907,5;29,72
18911,3;29,75
18915,0;29,77
18918,8;29,78
18922,5;29,80
18926,3;29,81
18930,0;29,82
18933,8;29,83
18937,5;29,84
18941,3;29,84
18945,0;29,84
18948,8;29,83
18952,5;29,83
18956,3;29,81
18960,0;29,80
18963,8;29,78
18967,5;29,75
18971,3;29,73
18975,0;29,70
18978,8;29,67
18982,5;29,65
18986,3;29,62
18990,0;29,59
18993,8;29,56
18997,5;29,53
19001,3;29,50
19005,0;29,47
19008,8;29,44
19012,5;29,41
19016,3;29,38
19020,0;29,35
19023,8;29,33
19027,5;29,31
19031,3;29,30
19035,0;29,28
19038,8;29,27
19042,5;29,25
19046,3;29,24
19050,0;29,24
19053,8;29,23
19057,5;29,23
19061,3;29,22
19065,0;29,22
19068,8;29,23
19072,5;29,23
19076,3;29,24
19080,0;29,25
19083,8;29,26
19087,5;29,27
19091,3;29,28
19095,0;29,29
19098,8;29,29
19102,5;29,30
19106,3;29,31
19110,0;29,32
19113,8;29,33
19117,5;29,34
19121,3;29,34
19125,0;29,35
19128,8;29,36
19132,5;29,36
19136,3;29,37
19140,0;29,37
19143,8;29,37
19147,5;29,38
19151,3;29,38
19155,0;29,38
19158,8;29,38
19162,5;29,38
19166,3;29,38
19170,0;29,39
19173,8;29,39
19177,5;29,39
19181,3;29,39
19185,0;29,39
19188,8;29,40
19192,5;29,40
19196,3;29,40
19200,0;29,41
19203,8;29,41
19207,5;29,42
19211,3;29,42
19215,0;29,43
19218,8;29,44
19222,5;29,45
19226,3;29,46
19230,0;29,47
19233,8;29,48
19237,5;29,48
19241,3;29,49
19245,0;29,50
19248,8;29,50
19252,5;29,51
19256,3;29,52
19260,0;29,52
19263,8;29,53
19267,5;29,53
19271,3;29,53
19275,0;29,53
19278,8;29,53
19282,5;29,53
19286,3;29,52
19290,0;29,52
19293,8;29,51
19297,5;29,50
19301,3;29,49
19305,0;29,48
19308,8;29,47
19312,5;29,46
19316,3;29,45
19320,0;29,43
19323,8;29,42
19327,5;29,41
19331,3;29,39
19335,0;29,38
19338,8;29,36
19342,5;29,35
19346,3;29,33
19350,0;29,32
19353,8;29,32
19357,5;29,31
19361,3;29,31
19365,0;29,31
19368,8;29,31
19372,5;29,31
19376,3;29,31
19380,0;29,32
19383,8;29,33
19387,5;29,34
19391,3;29,35
19395,0;29,37
19398,8;29,39
19402,5;29,41
19406,3;29,44
19410,0;29,47
19413,8;29,49
19417,5;29,53
19421,3;29,56
19425,0;29,59
19428,8;29,62
19432,5;29,65
19436,3;29,68
19440,0;29,72
19443,8;29,75
19447,5;29,79
19451,3;29,82
19455,0;29,86
19458,8;29,89
19462,5;29,92
19466,3;29,95
19470,0;29,97
19473,8;29,99
19477,5;30,02
19481,3;30,03
19485,0;30,05
19488,8;30,07
19492,5;30,08
19496,3;30,10
19500,0;30,11
19503,8;30,12
19507,5;30,13
19511,3;30,13
19515,0;30,14
19518,8;30,14
19522,5;30,14
19526,3;30,14
19530,0;30,13
19533,8;30,13
19537,5;30,13
19541,3;30,13
19545,0;30,13
19548,8;30,13
19552,5;30,13
19556,3;30,13
19560,0;30,13
19563,8;30,13
19567,5;30,13
19571,3;30,13
19575,0;30,13
19578,8;30,13
19582,5;30,14
19586,3;30,14
19590,0;30,15
19593,8;30,15
19597,5;30,16
19601,3;30,17
19605,0;30,18
19608,8;30,19
19612,5;30,20
19616,3;30,20
19620,0;30,21
19623,8;30,21
19627,5;30,22
19631,3;30,22
19635,0;30,22
19638,8;30,22
19642,5;30,23
19646,3;30,23
19650,0;30,23
19653,8;30,22
19657,5;30,22
19661,3;30,21
19665,0;30,20
19668,8;30,19
19672,5;30,18
19676,3;30,16
19680,0;30,15
19683,8;30,13
19687,5;30,12
19691,3;30,10
19695,0;30,09
19698,8;30,07
19702,5;30,06
19706,3;30,04
19710,0;30,02
19713,8;30,01
19717,5;29,99
19721,3;29,97
19725,0;29,96
19728,8;29,95
19732,5;29,94
19736,3;29,93
19740,0;29,92
19743,8;29,92
19747,5;29,92
19751,3;29,92
19755,0;29,92
19758,8;29,93
19762,5;29,93
19766,3;29,94
19770,0;29,95
19773,8;29,95
19777,5;29,96
19781,3;29,98
19785,0;29,99
19788,8;30,01
19792,5;30,02
19796,3;30,04
19800,0;30,06
19803,8;30,07
19807,5;30,09
19811,3;30,10
19815,0;30,11
19818,8;30,12
19822,5;30,13
19826,3;30,13
19830,0;30,14
19833,8;30,14
19837,5;30,15
19841,3;30,15
19845,0;30,15
19848,8;30,15
19852,5;30,14
19856,3;30,13
19860,0;30,12
19863,8;30,11
19867,5;30,09
19871,3;30,07
19875,0;30,05
19878,8;30,03
19882,5;30,01
19886,3;29,99
19890,0;29,97
19893,8;29,95
19897,5;29,94
19901,3;29,92
19905,0;29,90
19908,8;29,88
19912,5;29,86
19916,3;29,84
19920,0;29,82
19923,8;29,81
19927,5;29,80
19931,3;29,79
19935,0;29,79
19938,8;29,79
19942,5;29,79
19946,3;29,79
19950,0;29,80
19953,8;29,81
19957,5;29,82
19961,3;29,84
19965,0;29,86
19968,8;29,87
19972,5;29,90
19976,3;29,92
19980,0;29,95
19983,8;29,98
19987,5;30,01
19991,3;30,05
19995,0;30,09
19998,8;30,12
20002,5;30,16
20006,3;30,20
20010,0;30,24
20013,8;30,27
20017,5;30,31
20021,3;30,35
20025,0;30,39
20028,8;30,42
20032,5;30,46
20036,3;30,50
20040,0;30,54
20043,8;30,57
20047,5;30,60
20051,3;30,63
20055,0;30,66
20058,8;30,69
20062,5;30,71
20066,3;30,73
20070,0;30,75
20073,8;30,77
20077,5;30,79
20081,3;30,81
20085,0;30,82
20088,8;30,83
20092,5;30,84
20096,3;30,85
20100,0;30,86
20103,8;30,86
20107,5;30,86
20111,3;30,86
20115,0;30,86
20118,8;30,86
20122,5;30,85
20126,3;30,85
20130,0;30,84
20133,8;30,83
20137,5;30,83
20141,3;30,82
20145,0;30,81
20148,8;30,79
20152,5;30,78
20156,3;30,76
20160,0;30,75
20163,8;30,73
20167,5;30,72
20171,3;30,70
20175,0;30,68
20178,8;30,66
20182,5;30,65
20186,3;30,63
20190,0;30,60
20193,8;30,58
20197,5;30,56
20201,3;30,54
20205,0;30,52
20208,8;30,50
20212,5;30,48
20216,3;30,46
20220,0;30,44
20223,8;30,42
20227,5;30,40
20231,3;30,38
20235,0;30,36
20238,8;30,35
20242,5;30,33
20246,3;30,31
20250,0;30,30
20253,8;30,28
20257,5;30,27
20261,3;30,26
20265,0;30,25
20268,8;30,24
20272,5;30,23
20276,3;30,22
20280,0;30,22
20283,8;30,21
20287,5;30,21
20291,3;30,20
20295,0;30,20
20298,8;30,20
20302,5;30,20
20306,3;30,21
20310,0;30,21
20313,8;30,22
20317,5;30,22
20321,3;30,23
20325,0;30,24
20328,8;30,25
20332,5;30,26
20336,3;30,27
20340,0;30,28
20343,8;30,29
20347,5;30,30
20351,3;30,31
20355,0;30,32
20358,8;30,34
20362,5;30,35
20366,3;30,37
20370,0;30,38
20373,8;30,39
20377,5;30,40
20381,3;30,41
20385,0;30,42
20388,8;30,43
20392,5;30,44
20396,3;30,44
20400,0;30,45
20403,8;30,46
20407,5;30,46
20411,3;30,46
20415,0;30,47
20418,8;30,47
20422,5;30,47
20426,3;30,46
20430,0;30,46
20433,8;30,45
20437,5;30,44
20441,3;30,43
20445,0;30,42
20448,8;30,41
20452,5;30,40
20456,3;30,39
20460,0;30,38
20463,8;30,37
20467,5;30,36
20471,3;30,35
20475,0;30,33
20478,8;30,32
20482,5;30,30
20486,3;30,29
20490,0;30,27
20493,8;30,26
20497,5;30,25
20501,3;30,24
20505,0;30,23
20508,8;30,22
20512,5;30,22
20516,3;30,21
20520,0;30,21
20523,8;30,21
20527,5;30,21
20531,3;30,21
20535,0;30,21
20538,8;30,22
20542,5;30,22
20546,3;30,23
20550,0;30,24
20553,8;30,25
20557,5;30,27
20561,3;30,28
20565,0;30,30
20568,8;30,32
20572,5;30,34
20576,3;30,36
20580,0;30,38
20583,8;30,40
20587,5;30,42
20591,3;30,44
20595,0;30,46
20598,8;30,49
20602,5;30,51
20606,3;30,53
20610,0;30,55
20613,8;30,57
20617,5;30,60
20621,3;30,62
20625,0;30,63
20628,8;30,65
20632,5;30,66
20636,3;30,68
20640,0;30,69
20643,8;30,70
20647,5;30,70
20651,3;30,71
20655,0;30,72
20658,8;30,72
20662,5;30,72
20666,3;30,73
20670,0;30,73
20673,8;30,73
20677,5;30,73
20681,3;30,73
20685,0;30,73
20688,8;30,72
20692,5;30,72
20696,3;30,71
20700,0;30,70
20703,8;30,70
20707,5;30,69
20711,3;30,69
20715,0;30,69
20718,8;30,69
20722,5;30,69
20726,3;30,69
20730,0;30,69
20733,8;30,69
20737,5;30,69
20741,3;30,70
20745,0;30,70
20748,8;30,71
20752,5;30,71
20756,3;30,72
20760,0;30,73
20763,8;30,74
20767,5;30,75
20771,3;30,77
20775,0;30,78
20778,8;30,80
20782,5;30,82
20786,3;30,84
20790,0;30,85
20793,8;30,87
20797,5;30,89
20801,3;30,90
20805,0;30,92
20808,8;30,93
20812,5;30,94
20816,3;30,96
20820,0;30,97
20823,8;30,99
20827,5;31,00
20831,3;31,01
20835,0;31,02
20838,8;31,03
20842,5;31,04
20846,3;31,04
20850,0;31,05
20853,8;31,05
20857,5;31,05
20861,3;31,04
20865,0;31,04
20868,8;31,03
20872,5;31,03
20876,3;31,02
20880,0;31,01
20883,8;31,00
20887,5;31,00
20891,3;30,99
20895,0;30,98
20898,8;30,97
20902,5;30,96
20906,3;30,95
20910,0;30,94
20913,8;30,93
20917,5;30,92
20921,3;30,91
20925,0;30,90
20928,8;30,89
20932,5;30,89
20936,3;30,88
20940,0;30,88
20943,8;30,88
20947,5;30,88
20951,3;30,88
20955,0;30,89
20958,8;30,89
20962,5;30,89
20966,3;30,90
20970,0;30,90
20973,8;30,91
20977,5;30,91
20981,3;30,92
20985,0;30,93
20988,8;30,94
20992,5;30,95
20996,3;30,96
21000,0;30,97
21003,8;30,98
21007,5;30,99
21011,3;31,00
21015,0;31,01
21018,8;31,02
21022,5;31,02
21026,3;31,02
21030,0;31,03
21033,8;31,03
21037,5;31,03
21041,3;31,03
21045,0;31,03
21048,8;31,02
21052,5;31,02
21056,3;31,02
21060,0;31,01
21063,8;31,00
21067,5;31,00
21071,3;30,99
21075,0;30,97
21078,8;30,96
21082,5;30,95
21086,3;30,93
21090,0;30,91
21093,8;30,90
21097,5;30,88
21101,3;30,86
21105,0;30,85
21108,8;30,84
21112,5;30,82
21116,3;30,81
21120,0;30,80
21123,8;30,79
21127,5;30,78
21131,3;30,77
21135,0;30,76
21138,8;30,76
21142,5;30,75
21146,3;30,75
21150,0;30,74
21153,8;30,74
21157,5;30,74
21161,3;30,75
21165,0;30,75
21168,8;30,76
21172,5;30,77
21176,3;30,78
21180,0;30,79
21183,8;30,80
21187,5;30,82
21191,3;30,83
21195,0;30,84
21198,8;30,85
21202,5;30,87
21206,3;30,88
21210,0;30,89
21213,8;30,91
21217,5;30,92
21221,3;30,93
21225,0;30,95
21228,8;30,96
21232,5;30,98
21236,3;30,99
21240,0;31,00
21243,8;31,01
21247,5;31,01
21251,3;31,02
21255,0;31,02
21258,8;31,02
21262,5;31,02
21266,3;31,02
21270,0;31,02
21273,8;31,02
21277,5;31,02
21281,3;31,01
21285,0;31,01
21288,8;31,01
21292,5;31,00
21296,3;31,00
21300,0;30,99
21303,8;30,99
21307,5;30,98
21311,3;30,97
21315,0;30,96
21318,8;30,96
21322,5;30,95
21326,3;30,94
21330,0;30,94
21333,8;30,94
21337,5;30,93
21341,3;30,94
21345,0;30,94
21348,8;30,94
21352,5;30,95
21356,3;30,95
21360,0;30,96
21363,8;30,96
21367,5;30,97
21371,3;30,98
21375,0;30,99
21378,8;31,00
21382,5;31,01
21386,3;31,03
21390,0;31,04
21393,8;31,06
21397,5;31,08
21401,3;31,10
21405,0;31,12
21408,8;31,14
21412,5;31,16
21416,3;31,18
21420,0;31,20
21423,8;31,22
21427,5;31,24
21431,3;31,25
21435,0;31,27
21438,8;31,28
21442,5;31,30
21446,3;31,31
21450,0;31,33
21453,8;31,34
21457,5;31,35
21461,3;31,36
21465,0;31,37
21468,8;31,38
21472,5;31,39
21476,3;31,39
21480,0;31,40
21483,8;31,40
21487,5;31,40
21491,3;31,40
21495,0;31,39
21498,8;31,39
21502,5;31,39
21506,3;31,38
21510,0;31,38
21513,8;31,38
21517,5;31,37
21521,3;31,37
21525,0;31,37
21528,8;31,37
21532,5;31,37
21536,3;31,36
21540,0;31,36
21543,8;31,36
21547,5;31,35
21551,3;31,35
21555,0;31,35
21558,8;31,36
21562,5;31,36
21566,3;31,37
21570,0;31,38
21573,8;31,39
21577,5;31,40
21581,3;31,41
21585,0;31,43
21588,8;31,45
21592,5;31,46
21596,3;31,48
21600,0;31,50
21603,8;31,52
21607,5;31,54
21611,3;31,57
21615,0;31,59
21618,8;31,61
21622,5;31,64
21626,3;31,67
21630,0;31,70
21633,8;31,73
21637,5;31,76
21641,3;31,79
21645,0;31,82
21648,8;31,84
21652,5;31,87
21656,3;31,90
21660,0;31,92
21663,8;31,94
21667,5;31,96
21671,3;31,98
21675,0;32,00
21678,8;32,02
21682,5;32,04
21686,3;32,06
21690,0;32,07
21693,8;32,09
21697,5;32,10
21701,3;32,11
21705,0;32,12
21708,8;32,13
21712,5;32,13
21716,3;32,14
21720,0;32,14
21723,8;32,13
21727,5;32,13
21731,3;32,13
21735,0;32,12
21738,8;32,12
21742,5;32,11
21746,3;32,10
21750,0;32,10
21753,8;32,09
21757,5;32,09
21761,3;32,08
21765,0;32,07
21768,8;32,06
21772,5;32,05
21776,3;32,05
21780,0;32,04
21783,8;32,03
21787,5;32,02
21791,3;32,01
21795,0;32,00
21798,8;32,00
21802,5;31,99
21806,3;31,99
21810,0;31,98
21813,8;31,98
21817,5;31,98
21821,3;31,98
21825,0;31,98
21828,8;31,98
21832,5;31,98
21836,3;31,98
21840,0;31,98
21843,8;31,98
21847,5;31,97
21851,3;31,97
21855,0;31,97
21858,8;31,96
21862,5;31,96
21866,3;31,96
21870,0;31,96
21873,8;31,95
21877,5;31,95
21881,3;31,94
21885,0;31,93
21888,8;31,92
21892,5;31,91
21896,3;31,90
21900,0;31,88
21903,8;31,86
21907,5;31,84
21911,3;31,82
21915,0;31,79
21918,8;31,77
21922,5;31,74
21926,3;31,71
21930,0;31,68
21933,8;31,65
21937,5;31,62
21941,3;31,59
21945,0;31,56
21948,8;31,53
21952,5;31,50
21956,3;31,46
21960,0;31,42
21963,8;31,39
21967,5;31,35
21971,3;31,31
21975,0;31,27
21978,8;31,23
21982,5;31,20
21986,3;31,17
21990,0;31,14
21993,8;31,11
21997,5;31,09
22001,3;31,07
22005,0;31,05
22008,8;31,03
22012,5;31,01
22016,3;31,00
22020,0;30,98
22023,8;30,97
22027,5;30,97
22031,3;30,96
22035,0;30,96
22038,8;30,96
22042,5;30,96
22046,3;30,97
22050,0;30,98
22053,8;31,00
22057,5;31,02
22061,3;31,04
22065,0;31,06
22068,8;31,09
22072,5;31,12
22076,3;31,15
22080,0;31,18
22083,8;31,21
22087,5;31,24
22091,3;31,27
22095,0;31,30
22098,8;31,33
22102,5;31,37
22106,3;31,40
22110,0;31,44
22113,8;31,48
22117,5;31,52
22121,3;31,56
22125,0;31,59
22128,8;31,63
22132,5;31,66
22136,3;31,69
22140,0;31,72
22143,8;31,74
22147,5;31,76
22151,3;31,78
22155,0;31,80
22158,8;31,81
22162,5;31,83
22166,3;31,84
22170,0;31,85
22173,8;31,86
22177,5;31,87
22181,3;31,88
22185,0;31,88
22188,8;31,88
22192,5;31,88
22196,3;31,88
22200,0;31,88
22203,8;31,87
22207,5;31,86
22211,3;31,85
22215,0;31,83
22218,8;31,82
22222,5;31,81
22226,3;31,80
22230,0;31,78
22233,8;31,77
22237,5;31,77
22241,3;31,76
22245,0;31,75
22248,8;31,74
22252,5;31,74
22256,3;31,73
22260,0;31,72
22263,8;31,72
22267,5;31,71
22271,3;31,71
22275,0;31,71
22278,8;31,71
22282,5;31,71
22286,3;31,71
22290,0;31,72
22293,8;31,72
22297,5;31,73
22301,3;31,75
22305,0;31,76
22308,8;31,78
22312,5;31,80
22316,3;31,81
22320,0;31,83
22323,8;31,85
22327,5;31,87
22331,3;31,89
22335,0;31,90
22338,8;31,92
22342,5;31,93
22346,3;31,95
22350,0;31,97
22353,8;31,99
22357,5;32,01
22361,3;32,03
22365,0;32,05
22368,8;32,06
22372,5;32,08
22376,3;32,09
22380,0;32,10
22383,8;32,11
22387,5;32,12
22391,3;32,12
22395,0;32,12
22398,8;32,12
22402,5;32,11
22406,3;32,11
22410,0;32,10
22413,8;32,09
22417,5;32,08
22421,3;32,07
22425,0;32,06
22428,8;32,05
22432,5;32,03
22436,3;32,02
22440,0;32,00
22443,8;31,98
22447,5;31,96
22451,3;31,94
22455,0;31,91
22458,8;31,89
22462,5;31,86
22466,3;31,83
22470,0;31,81
22473,8;31,78
22477,5;31,76
22481,3;31,73
22485,0;31,71
22488,8;31,70
22492,5;31,68
22496,3;31,67
22500,0;31,65
22503,8;31,64
22507,5;31,62
22511,3;31,61
22515,0;31,60
22518,8;31,59
22522,5;31,59
22526,3;31,58
22530,0;31,58
22533,8;31,58
22537,5;31,58
22541,3;31,59
22545,0;31,59
22548,8;31,61
22552,5;31,62
22556,3;31,64
22560,0;31,65
22563,8;31,67
22567,5;31,70
22571,3;31,72
22575,0;31,74
22578,8;31,76
22582,5;31,78
22586,3;31,81
22590,0;31,83
22593,8;31,85
22597,5;31,87
22601,3;31,89
22605,0;31,92
22608,8;31,94
22612,5;31,97
22616,3;32,00
22620,0;32,02
22623,8;32,04
22627,5;32,07
22631,3;32,09
22635,0;32,10
22638,8;32,12
22642,5;32,13
22646,3;32,14
22650,0;32,15
22653,8;32,15
22657,5;32,16
22661,3;32,16
22665,0;32,16
22668,8;32,16
22672,5;32,16
22676,3;32,16
22680,0;32,15
22683,8;32,15
22687,5;32,14
22691,3;32,14
22695,0;32,13
22698,8;32,12
22702,5;32,10
22706,3;32,09
22710,0;32,07
22713,8;32,05
22717,5;32,04
22721,3;32,02
22725,0;32,00
22728,8;31,98
22732,5;31,96
22736,3;31,95
22740,0;31,93
22743,8;31,92
22747,5;31,91
22751,3;31,89
22755,0;31,88
22758,8;31,87
22762,5;31,86
22766,3;31,85
22770,0;31,84
22773,8;31,83
22777,5;31,83
22781,3;31,82
22785,0;31,81
22788,8;31,81
22792,5;31,81
22796,3;31,81
22800,0;31,81
22803,8;31,81
22807,5;31,81
22811,3;31,82
22815,0;31,83
22818,8;31,84
22822,5;31,85
22826,3;31,85
22830,0;31,86
22833,8;31,87
22837,5;31,88
22841,3;31,89
22845,0;31,90
22848,8;31,91
22852,5;31,91
22856,3;31,92
22860,0;31,93
22863,8;31,93
22867,5;31,94
22871,3;31,95
22875,0;31,96
22878,8;31,96
22882,5;31,97
22886,3;31,97
22890,0;31,97
22893,8;31,98
22897,5;31,98
22901,3;31,97
22905,0;31,97
22908,8;31,97
22912,5;31,96
22916,3;31,95
22920,0;31,94
22923,8;31,93
22927,5;31,92
22931,3;31,91
22935,0;31,90
22938,8;31,89
22942,5;31,88
22946,3;31,87
22950,0;31,86
22953,8;31,85
22957,5;31,84
22961,3;31,83
22965,0;31,82
22968,8;31,81
22972,5;31,80
22976,3;31,78
22980,0;31,77
22983,8;31,76
22987,5;31,76
22991,3;31,75
22995,0;31,74
22998,8;31,74
23002,5;31,74
23006,3;31,74
23010,0;31,74
23013,8;31,75
23017,5;31,76
23021,3;31,77
23025,0;31,78
23028,8;31,79
23032,5;31,80
23036,3;31,82
23040,0;31,83
23043,8;31,85
23047,5;31,87
23051,3;31,88
23055,0;31,90
23058,8;31,92
23062,5;31,94
23066,3;31,96
23070,0;31,98
23073,8;32,01
23077,5;32,03
23081,3;32,06
23085,0;32,08
23088,8;32,11
23092,5;32,13
23096,3;32,16
23100,0;32,18
23103,8;32,20
23107,5;32,22
23111,3;32,23
23115,0;32,25
23118,8;32,26
23122,5;32,27
23126,3;32,28
23130,0;32,29
23133,8;32,29
23137,5;32,30
23141,3;32,30
23145,0;32,31
23148,8;32,31
23152,5;32,31
23156,3;32,30
23160,0;32,30
23163,8;32,29
23167,5;32,29
23171,3;32,27
23175,0;32,26
23178,8;32,24
23182,5;32,22
23186,3;32,20
23190,0;32,18
23193,8;32,16
23197,5;32,13
23201,3;32,11
23205,0;32,09
23208,8;32,06
23212,5;32,04
23216,3;32,02
23220,0;32,01
23223,8;31,99
23227,5;31,97
23231,3;31,95
23235,0;31,93
23238,8;31,92
23242,5;31,90
23246,3;31,88
23250,0;31,87
23253,8;31,85
23257,5;31,84
23261,3;31,83
23265,0;31,82
23268,8;31,82
23272,5;31,81
23276,3;31,82
23280,0;31,82
23283,8;31,83
23287,5;31,83
23291,3;31,85
23295,0;31,86
23298,8;31,87
23302,5;31,89
23306,3;31,91
23310,0;31,93
23313,8;31,94
23317,5;31,96
23321,3;31,98
23325,0;32,00
23328,8;32,02
23332,5;32,04
23336,3;32,06
23340,0;32,09
23343,8;32,11
23347,5;32,14
23351,3;32,17
23355,0;32,20
23358,8;32,22
23362,5;32,25
23366,3;32,27
23370,0;32,30
23373,8;32,32
23377,5;32,33
23381,3;32,35
23385,0;32,36
23388,8;32,37
23392,5;32,37
23396,3;32,38
23400,0;32,38
23403,8;32,39
23407,5;32,39
23411,3;32,39
23415,0;32,38
23418,8;32,38
23422,5;32,37
23426,3;32,36
23430,0;32,35
23433,8;32,34
23437,5;32,32
23441,3;32,31
23445,0;32,29
23448,8;32,26
23452,5;32,23
23456,3;32,20
23460,0;32,17
23463,8;32,14
23467,5;32,11
23471,3;32,07
23475,0;32,04
23478,8;32,00
23482,5;31,97
23486,3;31,94
23490,0;31,91
23493,8;31,88
23497,5;31,85
23501,3;31,82
23505,0;31,79
23508,8;31,76
23512,5;31,73
23516,3;31,70
23520,0;31,66
23523,8;31,64
23527,5;31,61
23531,3;31,58
23535,0;31,56
23538,8;31,53
23542,5;31,51
23546,3;31,50
23550,0;31,48
23553,8;31,47
23557,5;31,46
23561,3;31,45
23565,0;31,45
23568,8;31,44
23572,5;31,44
23576,3;31,44
23580,0;31,44
23583,8;31,44
23587,5;31,45
23591,3;31,45
23595,0;31,46
23598,8;31,46
23602,5;31,47
23606,3;31,47
23610,0;31,48
23613,8;31,49
23617,5;31,51
23621,3;31,52
23625,0;31,54
23628,8;31,55
23632,5;31,57
23636,3;31,58
23640,0;31,60
23643,8;31,62
23647,5;31,63
23651,3;31,65
23655,0;31,66
23658,8;31,68
23662,5;31,69
23666,3;31,70
23670,0;31,71
23673,8;31,72
23677,5;31,73
23681,3;31,74
23685,0;31,75
23688,8;31,75
23692,5;31,76
23696,3;31,77
23700,0;31,78
23703,8;31,79
23707,5;31,80
23711,3;31,80
23715,0;31,81
23718,8;31,82
23722,5;31,82
23726,3;31,83
23730,0;31,83
23733,8;31,84
23737,5;31,84
23741,3;31,85
23745,0;31,85
23748,8;31,85
23752,5;31,86
23756,3;31,87
23760,0;31,88
23763,8;31,89
23767,5;31,90
23771,3;31,91
23775,0;31,93
23778,8;31,95
23782,5;31,96
23786,3;31,98
23790,0;32,01
23793,8;32,03
23797,5;32,05
23801,3;32,08
23805,0;32,10
23808,8;32,13
23812,5;32,16
23816,3;32,19
23820,0;32,22
23823,8;32,25
23827,5;32,29
23831,3;32,32
23835,0;32,36
23838,8;32,40
23842,5;32,45
23846,3;32,49
23850,0;32,54
23853,8;32,59
23857,5;32,64
23861,3;32,69
23865,0;32,74
23868,8;32,78
23872,5;32,83
23876,3;32,88
23880,0;32,92
23883,8;32,96
23887,5;33,00
23891,3;33,04
23895,0;33,08
23898,8;33,12
23902,5;33,16
23906,3;33,20
23910,0;33,24
23913,8;33,28
23917,5;33,31
23921,3;33,35
23925,0;33,38
23928,8;33,41
23932,5;33,44
23936,3;33,46
23940,0;33,48
23943,8;33,50
23947,5;33,51
23951,3;33,52
23955,0;33,53
23958,8;33,53
23962,5;33,54
23966,3;33,54
23970,0;33,54
23973,8;33,53
23977,5;33,53
23981,3;33,52
23985,0;33,51
23988,8;33,50
23992,5;33,49
23996,3;33,48
24000,0;33,47
24003,8;33,46
24007,5;33,44
24011,3;33,42
24015,0;33,40
24018,8;33,38
24022,5;33,35
24026,3;33,33
24030,0;33,30
24033,8;33,27
24037,5;33,25
24041,3;33,22
24045,0;33,19
24048,8;33,17
24052,5;33,15
24056,3;33,12
24060,0;33,10
24063,8;33,08
24067,5;33,06
24071,3;33,04
24075,0;33,02
24078,8;33,01
24082,5;32,99
24086,3;32,97
24090,0;32,95
24093,8;32,93
24097,5;32,92
24101,3;32,90
24105,0;32,89
24108,8;32,88
24112,5;32,87
24116,3;32,86
24120,0;32,85
24123,8;32,84
24127,5;32,84
24131,3;32,84
24135,0;32,84
24138,8;32,84
24142,5;32,84
24146,3;32,84
24150,0;32,84
24153,8;32,84
24157,5;32,84
24161,3;32,84
24165,0;32,84
24168,8;32,84
24172,5;32,84
24176,3;32,84
24180,0;32,84
24183,8;32,84
24187,5;32,84
24191,3;32,84
24195,0;32,84
24198,8;32,84
24202,5;32,84
24206,3;32,84
24210,0;32,84
24213,8;32,84
24217,5;32,84
24221,3;32,83
24225,0;32,82
24228,8;32,82
24232,5;32,81
24236,3;32,79
24240,0;32,78
24243,8;32,76
24247,5;32,75
24251,3;32,73
24255,0;32,71
24258,8;32,69
24262,5;32,67
24266,3;32,65
24270,0;32,63
24273,8;32,60
24277,5;32,58
24281,3;32,56
24285,0;32,53
24288,8;32,51
24292,5;32,49
24296,3;32,46
24300,0;32,43
24303,8;32,41
24307,5;32,38
24311,3;32,35
24315,0;32,32
24318,8;32,29
24322,5;32,26
24326,3;32,23
24330,0;32,20
24333,8;32,17
24337,5;32,14
24341,3;32,11
24345,0;32,09
24348,8;32,07
24352,5;32,05
24356,3;32,03
24360,0;32,02
24363,8;32,00
24367,5;31,98
24371,3;31,97
24375,0;31,96
24378,8;31,94
24382,5;31,93
24386,3;31,92
24390,0;31,92
24393,8;31,91
24397,5;31,90
24401,3;31,90
24405,0;31,89
24408,8;31,89
24412,5;31,89
24416,3;31,89
24420,0;31,90
24423,8;31,90
24427,5;31,91
24431,3;31,92
24435,0;31,93
24438,8;31,94
24442,5;31,96
24446,3;31,97
24450,0;31,98
24453,8;31,99
24457,5;32,00
24461,3;32,01
24465,0;32,02
24468,8;32,03
24472,5;32,03
24476,3;32,04
24480,0;32,05
24483,8;32,05
24487,5;32,06
24491,3;32,07
24495,0;32,07
24498,8;32,08
24502,5;32,08
24506,3;32,09
24510,0;32,09
24513,8;32,09
24517,5;32,09
24521,3;32,08
24525,0;32,08
24528,8;32,07
24532,5;32,06
24536,3;32,05
24540,0;32,03
24543,8;32,01
24547,5;32,00
24551,3;31,98
24555,0;31,95
24558,8;31,93
24562,5;31,91
24566,3;31,88
24570,0;31,86
24573,8;31,83
24577,5;31,80
24581,3;31,78
24585,0;31,75
24588,8;31,73
24592,5;31,70
24596,3;31,67
24600,0;31,65
24603,8;31,62
24607,5;31,58
24611,3;31,55
24615,0;31,52
24618,8;31,49
24622,5;31,46
24626,3;31,43
24630,0;31,40
24633,8;31,37
24637,5;31,34
24641,3;31,31
24645,0;31,29
24648,8;31,27
24652,5;31,25
24656,3;31,23
24660,0;31,21
24663,8;31,20
24667,5;31,18
24671,3;31,17
24675,0;31,15
24678,8;31,14
24682,5;31,13
24686,3;31,12
24690,0;31,12
24693,8;31,11
24697,5;31,10
24701,3;31,10
24705,0;31,10
24708,8;31,10
24712,5;31,10
24716,3;31,10
24720,0;31,10
24723,8;31,11
24727,5;31,11
24731,3;31,12
24735,0;31,13
24738,8;31,14
24742,5;31,15
24746,3;31,16
24750,0;31,18
24753,8;31,19
24757,5;31,20
24761,3;31,21
24765,0;31,23
24768,8;31,24
24772,5;31,25
24776,3;31,26
24780,0;31,27
24783,8;31,28
24787,5;31,29
24791,3;31,30
24795,0;31,31
24798,8;31,32
24802,5;31,33
24806,3;31,34
24810,0;31,35
24813,8;31,37
24817,5;31,38
24821,3;31,39
24825,0;31,40
24828,8;31,41
24832,5;31,42
24836,3;31,43
24840,0;31,44
24843,8;31,45
24847,5;31,46
24851,3;31,47
24855,0;31,48
24858,8;31,49
24862,5;31,50
24866,3;31,51
24870,0;31,52
24873,8;31,53
24877,5;31,54
24881,3;31,56
24885,0;31,57
24888,8;31,59
24892,5;31,61
24896,3;31,63
24900,0;31,65
24903,8;31,68
24907,5;31,70
24911,3;31,73
24915,0;31,76
24918,8;31,79
24922,5;31,83
24926,3;31,86
24930,0;31,89
24933,8;31,93
24937,5;31,96
24941,3;32,00
24945,0;32,03
24948,8;32,06
24952,5;32,10
24956,3;32,13
24960,0;32,16
