Created as New Dataset;Sample 013 By student Date s—ndag, februari 22 2026
nm;%T
1500,0;27,82
1503,8;28,12
1507,5;27,01
1511,3;28,11
1515,0;28,08
1518,8;27,95
1522,5;28,81
1526,3;28,64
1530,0;28,67
1533,8;28,30
1537,5;28,51
1541,3;29,11
1545,0;28,72
1548,8;28,62
1552,5;29,22
1556,3;29,35
1560,0;29,12
1563,8;29,53
1567,5;29,45
1571,3;28,54
1575,0;29,01
1578,8;29,42
1582,5;28,21
1586,3;28,82
1590,0;29,23
1593,8;29,77
1597,5;28,11
1601,3;29,55
1605,0;28,57
1608,8;29,69
1612,5;30,39
1616,3;28,75
1620,0;29,29
1623,8;30,08
1627,5;29,99
1631,3;31,05
1635,0;29,93
1638,8;29,99
1642,5;30,38
1646,3;31,55
1650,0;30,66
1653,8;30,72
1657,5;32,61
1661,3;30,86
1665,0;32,97
1668,8;31,73
1672,5;30,54
1676,3;33,33
1680,0;30,04
1683,8;29,70
1687,5;32,75
1691,3;31,08
1695,0;28,85
1698,8;28,36
1702,5;31,11
1706,3;29,22
1710,0;28,33
1713,8;27,63
1717,5;29,09
1721,3;29,62
1725,0;28,25
1728,8;27,49
1732,5;27,77
1736,3;26,53
1740,0;27,05
1743,8;27,44
1747,5;28,17
1751,3;28,15
1755,0;27,59
1758,8;27,59
1762,5;28,43
1766,3;27,35
1770,0;27,38
1773,8;26,63
1777,5;26,96
1781,3;26,86
1785,0;26,77
1788,8;27,73
1792,5;27,29
1796,3;26,98
1800,0;27,38
1803,8;27,37
1807,5;27,17
1811,3;26,36
1815,0;27,12
1818,8;26,77
1822,5;26,74
1826,3;27,96
1830,0;25,93
1833,8;27,14
1837,5;27,29
1841,3;27,71
1845,0;26,67
1848,8;27,50
1852,5;27,95
1856,3;28,49
1860,0;28,12
1863,8;27,63
1867,5;28,14
1871,3;29,58
1875,0;27,89
1878,8;28,48
1882,5;28,09
1886,3;29,28
1890,0;28,54
1893,8;28,94
1897,5;28,04
1901,3;29,86
1905,0;30,23
1908,8;29,69
1912,5;29,30
1916,3;30,34
1920,0;29,62
1923,8;30,01
1927,5;30,05
1931,3;31,22
1935,0;28,96
1938,8;30,14
1942,5;30,07
1946,3;30,39
1950,0;29,70
1953,8;30,20
1957,5;30,50
1961,3;30,83
1965,0;31,32
1968,8;32,19
1972,5;31,08
1976,3;32,16
1980,0;30,70
1983,8;30,71
1987,5;30,31
1991,3;31,81
1995,0;30,67
1998,8;31,67
2002,5;31,94
2006,3;30,63
2010,0;32,13
2013,8;31,96
2017,5;32,01
2021,3;31,52
2025,0;32,59
2028,8;33,08
2032,5;33,84
2036,3;32,93
2040,0;33,52
2043,8;33,14
2047,5;32,16
2051,3;33,77
2055,0;33,97
2058,8;32,55
2062,5;32,43
2066,3;33,63
2070,0;33,86
2073,8;33,88
2077,5;33,83
2081,3;33,63
2085,0;32,53
2088,8;33,82
2092,5;33,85
2096,3;34,33
2100,0;34,02
2103,8;36,69
2107,5;34,00
2111,3;36,33
2115,0;34,71
2118,8;35,87
2122,5;35,96
2126,3;35,59
2130,0;35,43
2133,8;35,17
2137,5;34,64
2141,3;35,12
2145,0;34,05
2148,8;34,80
2152,5;34,05
2156,3;35,13
2160,0;34,94
2163,8;36,39
2167,5;39,24
2171,3;36,55
2175,0;37,05
2178,8;37,99
2182,5;35,73
2186,3;37,32
2190,0;36,66
2193,8;34,73
2197,5;38,41
2201,3;38,29
2205,0;37,86
2208,8;39,04
2212,5;39,59
2216,3;37,63
2220,0;38,54
2223,8;41,13
2227,5;40,47
2231,3;43,50
2235,0;41,61
2238,8;39,17
2242,5;45,63
2246,3;45,80
2250,0;44,78
2253,8;51,51
2257,5;50,71
2261,3;56,16
2265,0;52,70
2268,8;45,73
2272,5;62,33
2276,3;66,67
2280,0;54,32
2283,8;52,54
2287,5;72,13
2291,3;58,51
2295,0;71,23
2298,8;76,54
2302,5;66,44
2306,3;50,22
2310,0;63,17
2313,8;50,49
2317,5;44,49
2321,3;44,19
2325,0;38,23
2328,8;41,92
2332,5;40,78
2336,3;37,42
2340,0;40,82
2343,8;37,31
2347,5;34,62
2351,3;36,56
2355,0;29,87
2358,8;32,97
2362,5;35,75
2366,3;34,43
2370,0;34,98
2373,8;32,17
2377,5;34,37
2381,3;32,58
2385,0;33,73
2388,8;30,42
2392,5;31,87
2396,3;31,32
2400,0;30,42
2403,8;34,27
2407,5;33,28
2411,3;31,33
2415,0;33,21
2418,8;30,80
2422,5;30,60
2426,3;31,48
2430,0;31,26
2433,8;32,10
2437,5;31,72
2441,3;32,04
2445,0;32,48
2448,8;32,35
2452,5;32,85
2456,3;32,99
2460,0;30,18
2463,8;31,91
2467,5;31,21
2471,3;31,23
2475,0;32,62
2478,8;32,74
2482,5;32,70
2486,3;32,50
2490,0;32,34
2493,8;32,95
2497,5;31,77
2501,3;30,49
2505,0;31,66
2508,8;31,79
2512,5;31,27
2516,3;32,50
2520,0;31,73
2523,8;31,79
2527,5;32,20
2531,3;31,23
2535,0;32,26
2538,8;32,90
2542,5;32,54
2546,3;31,00
2550,0;31,49
2553,8;32,16
2557,5;32,53
2561,3;31,27
2565,0;30,47
2568,8;31,58
2572,5;31,54
2576,3;32,01
2580,0;32,78
2583,8;30,58
2587,5;32,08
2591,3;32,26
2595,0;31,52
2598,8;30,73
2602,5;32,01
2606,3;30,85
2610,0;31,56
2613,8;31,94
2617,5;31,49
2621,3;31,09
2625,0;31,97
2628,8;31,88
2632,5;30,93
2636,3;31,62
2640,0;31,59
2643,8;31,43
2647,5;32,35
2651,3;31,74
2655,0;32,54
2658,8;31,83
2662,5;32,31
2666,3;31,19
2670,0;30,51
2673,8;31,27
2677,5;31,46
2681,3;31,59
2685,0;31,08
2688,8;31,90
2692,5;31,74
2696,3;31,39
2700,0;31,85
2703,8;32,48
2707,5;32,10
2711,3;31,49
2715,0;31,77
2718,8;31,91
2722,5;31,18
2726,3;31,22
2730,0;31,75
2733,8;32,34
2737,5;31,78
2741,3;31,25
2745,0;31,44
2748,8;32,24
2752,5;31,59
2756,3;31,34
2760,0;31,66
2763,8;31,98
2767,5;31,22
2771,3;31,58
2775,0;31,43
2778,8;31,67
2782,5;31,22
2786,3;31,45
2790,0;31,15
2793,8;31,27
2797,5;32,15
2801,3;31,65
2805,0;31,37
2808,8;31,13
2812,5;31,57
2816,3;31,40
2820,0;30,91
2823,8;31,01
2827,5;31,09
2831,3;31,82
2835,0;31,20
2838,8;31,54
2842,5;31,72
2846,3;31,34
2850,0;31,42
2853,8;31,70
2857,5;31,29
2861,3;31,58
2865,0;31,27
2868,8;31,39
2872,5;32,05
2876,3;31,45
2880,0;31,16
2883,8;31,43
2887,5;31,45
2891,3;31,55
2895,0;31,19
2898,8;31,31
2902,5;31,16
2906,3;31,29
2910,0;31,46
2913,8;30,98
2917,5;31,17
2921,3;31,59
2925,0;31,37
2928,8;31,49
2932,5;31,49
2936,3;31,65
2940,0;31,18
2943,8;31,33
2947,5;31,25
2951,3;31,31
2955,0;31,12
2958,8;31,30
2962,5;31,52
2966,3;31,24
2970,0;31,22
2973,8;31,33
2977,5;31,23
2981,3;31,31
2985,0;31,15
2988,8;31,39
2992,5;31,33
2996,3;30,86
3000,0;31,27
3003,8;31,25
3007,5;31,29
3011,3;31,29
3015,0;31,26
3018,8;31,16
3022,5;31,16
3026,3;31,29
3030,0;31,35
3033,8;31,20
3037,5;31,38
3041,3;31,10
3045,0;31,26
3048,8;31,13
3052,5;30,90
3056,3;30,96
3060,0;31,18
3063,8;31,05
3067,5;31,06
3071,3;31,13
3075,0;31,21
3078,8;31,35
3082,5;30,92
3086,3;31,18
3090,0;31,01
3093,8;30,87
3097,5;31,09
3101,3;31,35
3105,0;30,91
3108,8;30,88
3112,5;31,24
3116,3;31,17
3120,0;31,04
3123,8;30,80
3127,5;31,16
3131,3;31,06
3135,0;31,09
3138,8;31,16
3142,5;31,15
3146,3;31,37
3150,0;31,14
3153,8;30,96
3157,5;31,20
3161,3;31,16
3165,0;31,16
3168,8;31,04
3172,5;30,93
3176,3;30,88
3180,0;31,13
3183,8;31,27
3187,5;31,35
3191,3;31,19
3195,0;31,13
3198,8;31,13
3202,5;30,81
3206,3;30,94
3210,0;31,04
3213,8;31,17
3217,5;31,07
3221,3;31,19
3225,0;31,42
3228,8;31,29
3232,5;31,21
3236,3;30,96
3240,0;31,06
3243,8;31,19
3247,5;30,98
3251,3;31,11
3255,0;31,15
3258,8;31,09
3262,5;31,23
3266,3;31,07
3270,0;31,05
3273,8;31,24
3277,5;31,08
3281,3;31,08
3285,0;31,11
3288,8;31,25
3292,5;31,31
3296,3;31,13
3300,0;31,04
3303,8;30,94
3307,5;31,06
3311,3;30,97
3315,0;31,11
3318,8;31,32
3322,5;30,97
3326,3;31,07
3330,0;30,97
3333,8;31,03
3337,5;31,09
3341,3;31,09
3345,0;31,06
3348,8;30,90
3352,5;30,93
3356,3;30,82
3360,0;30,92
3363,8;31,01
3367,5;31,02
3371,3;30,94
3375,0;30,93
3378,8;30,73
3382,5;30,82
3386,3;30,90
3390,0;31,02
3393,8;30,79
3397,5;30,90
3401,3;30,74
3405,0;30,62
3408,8;30,67
3412,5;30,62
3416,3;30,56
3420,0;30,59
3423,8;30,76
3427,5;30,48
3431,3;30,52
3435,0;30,51
3438,8;30,56
3442,5;30,73
3446,3;30,78
3450,0;30,71
3453,8;30,88
3457,5;31,02
3461,3;30,85
3465,0;30,84
3468,8;30,85
3472,5;30,86
3476,3;30,88
3480,0;30,84
3483,8;30,69
3487,5;30,94
3491,3;31,05
3495,0;30,84
3498,8;30,67
3502,5;30,64
3506,3;30,70
3510,0;30,64
3513,8;30,75
3517,5;30,77
3521,3;30,80
3525,0;30,91
3528,8;31,06
3532,5;30,82
3536,3;30,90
3540,0;30,73
3543,8;30,90
3547,5;30,91
3551,3;30,92
3555,0;31,05
3558,8;31,16
3562,5;31,09
3566,3;30,96
3570,0;30,93
3573,8;30,83
3577,5;30,90
3581,3;31,12
3585,0;31,02
3588,8;31,06
3592,5;31,13
3596,3;31,04
3600,0;31,09
3603,8;31,14
3607,5;31,07
3611,3;31,12
3615,0;31,23
3618,8;31,11
3622,5;31,19
3626,3;31,18
3630,0;31,12
3633,8;31,00
3637,5;31,04
3641,3;31,06
3645,0;31,14
3648,8;31,08
3652,5;31,03
3656,3;31,02
3660,0;31,01
3663,8;31,08
3667,5;31,14
3671,3;31,05
3675,0;31,04
3678,8;31,30
3682,5;31,13
3686,3;30,99
3690,0;30,94
3693,8;31,00
3697,5;31,07
3701,3;31,10
3705,0;31,10
3708,8;31,07
3712,5;30,99
3716,3;31,06
3720,0;31,21
3723,8;31,26
3727,5;31,13
3731,3;31,05
3735,0;31,03
3738,8;31,12
3742,5;31,06
3746,3;30,92
3750,0;30,82
3753,8;30,89
3757,5;30,97
3761,3;31,02
3765,0;31,03
3768,8;31,00
3772,5;30,96
3776,3;31,08
3780,0;31,10
3783,8;31,03
3787,5;31,06
3791,3;31,07
3795,0;31,01
3798,8;30,90
3802,5;30,91
3806,3;31,15
3810,0;31,18
3813,8;30,99
3817,5;30,98
3821,3;30,95
3825,0;30,98
3828,8;31,06
3832,5;31,11
3836,3;31,00
3840,0;30,97
3843,8;30,97
3847,5;30,95
3851,3;31,02
3855,0;30,99
3858,8;31,04
3862,5;31,00
3866,3;30,98
3870,0;30,91
3873,8;31,01
3877,5;31,03
3881,3;30,92
3885,0;30,99
3888,8;31,04
3892,5;30,93
3896,3;30,86
3900,0;30,86
3903,8;30,88
3907,5;30,93
3911,3;30,87
3915,0;30,91
3918,8;31,07
3922,5;31,07
3926,3;31,11
3930,0;31,04
3933,8;30,94
3937,5;30,95
3941,3;30,98
3945,0;30,96
3948,8;31,00
3952,5;31,03
3956,3;30,98
3960,0;30,88
3963,8;30,83
3967,5;30,93
3971,3;30,91
3975,0;30,84
3978,8;30,82
3982,5;30,79
3986,3;30,97
3990,0;31,03
3993,8;31,03
3997,5;31,02
4001,3;30,86
4005,0;30,82
4008,8;30,91
4012,5;30,98
4016,3;31,01
4020,0;31,00
4023,8;30,94
4027,5;30,87
4031,3;30,91
4035,0;30,88
4038,8;30,89
4042,5;30,90
4046,3;31,04
4050,0;31,03
4053,8;30,94
4057,5;30,89
4061,3;30,85
4065,0;30,84
4068,8;30,87
4072,5;30,83
4076,3;30,78
4080,0;30,79
4083,8;30,83
4087,5;30,80
4091,3;30,91
4095,0;30,98
4098,8;30,89
4102,5;30,80
4106,3;30,92
4110,0;31,00
4113,8;30,93
4117,5;30,93
4121,3;30,84
4125,0;30,80
4128,8;30,83
4132,5;30,90
4136,3;30,91
4140,0;30,88
4143,8;30,81
4147,5;30,76
4151,3;30,82
4155,0;30,84
4158,8;30,78
4162,5;30,76
4166,3;30,81
4170,0;30,86
4173,8;30,88
4177,5;30,91
4181,3;30,95
4185,0;30,98
4188,8;30,93
4192,5;30,90
4196,3;30,90
4200,0;31,07
4203,8;31,34
4207,5;31,49
4211,3;31,57
4215,0;31,62
4218,8;31,44
4222,5;31,25
4226,3;31,52
4230,0;31,80
4233,8;31,82
4237,5;31,56
4241,3;31,52
4245,0;31,63
4248,8;31,60
4252,5;31,56
4256,3;31,69
4260,0;31,58
4263,8;31,72
4267,5;32,16
4271,3;32,14
4275,0;31,74
4278,8;31,55
4282,5;31,61
4286,3;31,45
4290,0;31,18
4293,8;31,04
4297,5;31,05
4301,3;31,00
4305,0;30,94
4308,8;31,08
4312,5;31,12
4316,3;30,95
4320,0;30,84
4323,8;31,02
4327,5;31,16
4331,3;31,12
4335,0;30,96
4338,8;30,88
4342,5;30,92
4346,3;30,93
4350,0;30,90
4353,8;30,86
4357,5;30,91
4361,3;30,91
4365,0;30,83
4368,8;30,78
4372,5;30,80
4376,3;30,79
4380,0;30,70
4383,8;30,71
4387,5;30,79
4391,3;30,73
4395,0;30,63
4398,8;30,70
4402,5;30,76
4406,3;30,74
4410,0;30,75
4413,8;30,74
4417,5;30,72
4421,3;30,73
4425,0;30,69
4428,8;30,64
4432,5;30,66
4436,3;30,66
4440,0;30,63
4443,8;30,62
4447,5;30,63
4451,3;30,60
4455,0;30,56
4458,8;30,59
4462,5;30,60
4466,3;30,58
4470,0;30,57
4473,8;30,57
4477,5;30,60
4481,3;30,61
4485,0;30,60
4488,8;30,55
4492,5;30,48
4496,3;30,47
4500,0;30,51
4503,8;30,52
4507,5;30,55
4511,3;30,60
4515,0;30,64
4518,8;30,63
4522,5;30,59
4526,3;30,55
4530,0;30,54
4533,8;30,58
4537,5;30,62
4541,3;30,61
4545,0;30,59
4548,8;30,57
4552,5;30,54
4556,3;30,53
4560,0;30,55
4563,8;30,54
4567,5;30,50
4571,3;30,50
4575,0;30,51
4578,8;30,52
4582,5;30,52
4586,3;30,53
4590,0;30,54
4593,8;30,55
4597,5;30,57
4601,3;30,54
4605,0;30,50
4608,8;30,47
4612,5;30,44
4616,3;30,46
4620,0;30,49
4623,8;30,49
4627,5;30,52
4631,3;30,58
4635,0;30,59
4638,8;30,52
4642,5;30,47
4646,3;30,51
4650,0;30,52
4653,8;30,45
4657,5;30,37
4661,3;30,36
4665,0;30,40
4668,8;30,43
4672,5;30,44
4676,3;30,42
4680,0;30,36
4683,8;30,34
4687,5;30,34
4691,3;30,37
4695,0;30,39
4698,8;30,39
4702,5;30,44
4706,3;30,49
4710,0;30,51
4713,8;30,49
4717,5;30,46
4721,3;30,45
4725,0;30,42
4728,8;30,36
4732,5;30,31
4736,3;30,27
4740,0;30,30
4743,8;30,36
4747,5;30,38
4751,3;30,38
4755,0;30,39
4758,8;30,36
4762,5;30,34
4766,3;30,29
4770,0;30,21
4773,8;30,20
4777,5;30,30
4781,3;30,39
4785,0;30,41
4788,8;30,40
4792,5;30,39
4796,3;30,37
4800,0;30,32
4803,8;30,29
4807,5;30,28
4811,3;30,27
4815,0;30,28
4818,8;30,30
4822,5;30,28
4826,3;30,27
4830,0;30,29
4833,8;30,30
4837,5;30,26
4841,3;30,24
4845,0;30,28
4848,8;30,33
4852,5;30,32
4856,3;30,27
4860,0;30,26
4863,8;30,26
4867,5;30,26
4871,3;30,26
4875,0;30,29
4878,8;30,30
4882,5;30,31
4886,3;30,32
4890,0;30,31
4893,8;30,28
4897,5;30,25
4901,3;30,25
4905,0;30,25
4908,8;30,22
4912,5;30,19
4916,3;30,19
4920,0;30,19
4923,8;30,19
4927,5;30,18
4931,3;30,18
4935,0;30,21
4938,8;30,22
4942,5;30,23
4946,3;30,23
4950,0;30,19
4953,8;30,17
4957,5;30,22
4961,3;30,24
4965,0;30,20
4968,8;30,15
4972,5;30,11
4976,3;30,10
4980,0;30,12
4983,8;30,15
4987,5;30,14
4991,3;30,12
4995,0;30,11
4998,8;30,17
5002,5;30,26
5006,3;30,28
5010,0;30,23
5013,8;30,19
5017,5;30,19
5021,3;30,23
5025,0;30,31
5028,8;30,36
5032,5;30,33
5036,3;30,26
5040,0;30,22
5043,8;30,19
5047,5;30,17
5051,3;30,19
5055,0;30,22
5058,8;30,21
5062,5;30,17
5066,3;30,16
5070,0;30,18
5073,8;30,22
5077,5;30,23
5081,3;30,21
5085,0;30,19
5088,8;30,18
5092,5;30,18
5096,3;30,16
5100,0;30,14
5103,8;30,13
5107,5;30,13
5111,3;30,15
5115,0;30,17
5118,8;30,14
5122,5;30,11
5126,3;30,13
5130,0;30,14
5133,8;30,11
5137,5;30,09
5141,3;30,11
5145,0;30,14
5148,8;30,14
5152,5;30,14
5156,3;30,18
5160,0;30,24
5163,8;30,25
5167,5;30,19
5171,3;30,15
5175,0;30,16
5178,8;30,18
5182,5;30,17
5186,3;30,13
5190,0;30,10
5193,8;30,10
5197,5;30,10
5201,3;30,07
5205,0;30,01
5208,8;29,94
5212,5;29,95
5216,3;30,01
5220,0;30,03
5223,8;30,01
5227,5;30,00
5231,3;30,02
5235,0;30,05
5238,8;30,08
5242,5;30,09
5246,3;30,09
5250,0;30,08
5253,8;30,06
5257,5;30,02
5261,3;30,00
5265,0;30,00
5268,8;29,99
5272,5;29,98
5276,3;30,01
5280,0;30,05
5283,8;30,04
5287,5;30,00
5291,3;29,97
5295,0;29,98
5298,8;29,99
5302,5;29,99
5306,3;29,99
5310,0;29,97
5313,8;29,94
5317,5;29,94
5321,3;30,00
5325,0;30,05
5328,8;30,06
5332,5;30,08
5336,3;30,13
5340,0;30,17
5343,8;30,17
5347,5;30,16
5351,3;30,13
5355,0;30,10
5358,8;30,09
5362,5;30,08
5366,3;30,07
5370,0;30,07
5373,8;30,08
5377,5;30,10
5381,3;30,12
5385,0;30,11
5388,8;30,08
5392,5;30,04
5396,3;29,98
5400,0;29,96
5403,8;29,99
5407,5;30,03
5411,3;30,03
5415,0;29,98
5418,8;29,95
5422,5;29,96
5426,3;29,98
5430,0;29,95
5433,8;29,94
5437,5;29,97
5441,3;30,01
5445,0;30,04
5448,8;30,06
5452,5;30,04
5456,3;29,99
5460,0;29,95
5463,8;29,93
5467,5;29,91
5471,3;29,87
5475,0;29,84
5478,8;29,87
5482,5;29,92
5486,3;29,93
5490,0;29,89
5493,8;29,83
5497,5;29,78
5501,3;29,74
5505,0;29,72
5508,8;29,72
5512,5;29,73
5516,3;29,76
5520,0;29,81
5523,8;29,85
5527,5;29,82
5531,3;29,77
5535,0;29,77
5538,8;29,79
5542,5;29,80
5546,3;29,77
5550,0;29,70
5553,8;29,64
5557,5;29,61
5561,3;29,60
5565,0;29,59
5568,8;29,62
5572,5;29,65
5576,3;29,65
5580,0;29,64
5583,8;29,64
5587,5;29,63
5591,3;29,60
5595,0;29,58
5598,8;29,57
5602,5;29,58
5606,3;29,60
5610,0;29,62
5613,8;29,63
5617,5;29,61
5621,3;29,58
5625,0;29,55
5628,8;29,52
5632,5;29,49
5636,3;29,47
5640,0;29,46
5643,8;29,46
5647,5;29,48
5651,3;29,48
5655,0;29,48
5658,8;29,48
5662,5;29,43
5666,3;29,36
5670,0;29,31
5673,8;29,33
5677,5;29,38
5681,3;29,41
5685,0;29,39
5688,8;29,36
5692,5;29,30
5696,3;29,24
5700,0;29,20
5703,8;29,20
5707,5;29,21
5711,3;29,18
5715,0;29,13
5718,8;29,10
5722,5;29,10
5726,3;29,10
5730,0;29,06
5733,8;29,00
5737,5;28,95
5741,3;28,93
5745,0;28,94
5748,8;28,98
5752,5;29,01
5756,3;29,03
5760,0;29,03
5763,8;29,01
5767,5;28,99
5771,3;28,97
5775,0;28,93
5778,8;28,91
5782,5;28,91
5786,3;28,92
5790,0;28,93
5793,8;28,92
5797,5;28,91
5801,3;28,89
5805,0;28,90
5808,8;28,94
5812,5;28,98
5816,3;29,03
5820,0;29,07
5823,8;29,07
5827,5;29,04
5831,3;29,04
5835,0;29,04
5838,8;29,03
5842,5;29,01
5846,3;28,99
5850,0;28,97
5853,8;28,95
5857,5;28,94
5861,3;28,94
5865,0;28,95
5868,8;28,96
5872,5;28,98
5876,3;28,99
5880,0;28,98
5883,8;29,00
5887,5;29,02
5891,3;29,02
5895,0;29,04
5898,8;29,08
5902,5;29,08
5906,3;29,04
5910,0;29,00
5913,8;29,00
5917,5;29,01
5921,3;29,00
5925,0;28,99
5928,8;28,97
5932,5;28,95
5936,3;28,91
5940,0;28,90
5943,8;28,90
5947,5;28,89
5951,3;28,90
5955,0;28,91
5958,8;28,90
5962,5;28,88
5966,3;28,89
5970,0;28,91
5973,8;28,95
5977,5;28,97
5981,3;28,95
5985,0;28,88
5988,8;28,79
5992,5;28,75
5996,3;28,77
6000,0;28,79
6003,8;28,78
6007,5;28,74
6011,3;28,69
6015,0;28,66
6018,8;28,65
6022,5;28,68
6026,3;28,72
6030,0;28,77
6033,8;28,80
6037,5;28,82
6041,3;28,82
6045,0;28,78
6048,8;28,73
6052,5;28,73
6056,3;28,72
6060,0;28,69
6063,8;28,69
6067,5;28,72
6071,3;28,74
6075,0;28,75
6078,8;28,75
6082,5;28,72
6086,3;28,70
6090,0;28,69
6093,8;28,69
6097,5;28,69
6101,3;28,67
6105,0;28,65
6108,8;28,65
6112,5;28,66
6116,3;28,70
6120,0;28,72
6123,8;28,72
6127,5;28,72
6131,3;28,75
6135,0;28,75
6138,8;28,74
6142,5;28,72
6146,3;28,70
6150,0;28,70
6153,8;28,69
6157,5;28,69
6161,3;28,69
6165,0;28,70
6168,8;28,72
6172,5;28,72
6176,3;28,72
6180,0;28,72
6183,8;28,73
6187,5;28,76
6191,3;28,80
6195,0;28,83
6198,8;28,84
6202,5;28,85
6206,3;28,84
6210,0;28,81
6213,8;28,79
6217,5;28,76
6221,3;28,75
6225,0;28,75
6228,8;28,77
6232,5;28,80
6236,3;28,80
6240,0;28,76
6243,8;28,72
6247,5;28,69
6251,3;28,68
6255,0;28,66
6258,8;28,64
6262,5;28,63
6266,3;28,64
6270,0;28,66
6273,8;28,68
6277,5;28,69
6281,3;28,70
6285,0;28,72
6288,8;28,75
6292,5;28,78
6296,3;28,80
6300,0;28,78
6303,8;28,75
6307,5;28,73
6311,3;28,74
6315,0;28,75
6318,8;28,76
6322,5;28,78
6326,3;28,79
6330,0;28,81
6333,8;28,83
6337,5;28,84
6341,3;28,85
6345,0;28,84
6348,8;28,81
6352,5;28,77
6356,3;28,74
6360,0;28,75
6363,8;28,77
6367,5;28,79
6371,3;28,81
6375,0;28,81
6378,8;28,78
6382,5;28,73
6386,3;28,70
6390,0;28,68
6393,8;28,67
6397,5;28,68
6401,3;28,71
6405,0;28,75
6408,8;28,76
6412,5;28,70
6416,3;28,64
6420,0;28,63
6423,8;28,63
6427,5;28,64
6431,3;28,66
6435,0;28,68
6438,8;28,69
6442,5;28,68
6446,3;28,66
6450,0;28,65
6453,8;28,64
6457,5;28,63
6461,3;28,63
6465,0;28,63
6468,8;28,63
6472,5;28,63
6476,3;28,63
6480,0;28,63
6483,8;28,63
6487,5;28,63
6491,3;28,63
6495,0;28,64
6498,8;28,65
6502,5;28,62
6506,3;28,58
6510,0;28,56
6513,8;28,56
6517,5;28,56
6521,3;28,57
6525,0;28,59
6528,8;28,60
6532,5;28,61
6536,3;28,61
6540,0;28,61
6543,8;28,61
6547,5;28,61
6551,3;28,60
6555,0;28,60
6558,8;28,60
6562,5;28,61
6566,3;28,62
6570,0;28,63
6573,8;28,65
6577,5;28,67
6581,3;28,69
6585,0;28,69
6588,8;28,70
6592,5;28,70
6596,3;28,70
6600,0;28,69
6603,8;28,67
6607,5;28,66
6611,3;28,66
6615,0;28,67
6618,8;28,68
6622,5;28,68
6626,3;28,67
6630,0;28,64
6633,8;28,62
6637,5;28,62
6641,3;28,65
6645,0;28,66
6648,8;28,65
6652,5;28,62
6656,3;28,61
6660,0;28,61
6663,8;28,61
6667,5;28,62
6671,3;28,62
6675,0;28,62
6678,8;28,61
6682,5;28,58
6686,3;28,55
6690,0;28,51
6693,8;28,46
6697,5;28,42
6701,3;28,39
6705,0;28,37
6708,8;28,36
6712,5;28,37
6716,3;28,38
6720,0;28,39
6723,8;28,39
6727,5;28,38
6731,3;28,37
6735,0;28,36
6738,8;28,35
6742,5;28,34
6746,3;28,34
6750,0;28,33
6753,8;28,33
6757,5;28,34
6761,3;28,33
6765,0;28,31
6768,8;28,29
6772,5;28,28
6776,3;28,28
6780,0;28,29
6783,8;28,28
6787,5;28,26
6791,3;28,24
6795,0;28,22
6798,8;28,21
6802,5;28,21
6806,3;28,22
6810,0;28,22
6813,8;28,23
6817,5;28,22
6821,3;28,19
6825,0;28,15
6828,8;28,12
6832,5;28,09
6836,3;28,08
6840,0;28,08
6843,8;28,10
6847,5;28,11
6851,3;28,11
6855,0;28,09
6858,8;28,06
6862,5;28,03
6866,3;28,02
6870,0;28,02
6873,8;28,01
6877,5;27,99
6881,3;27,97
6885,0;27,95
6888,8;27,94
6892,5;27,93
6896,3;27,93
6900,0;27,92
6903,8;27,92
6907,5;27,91
6911,3;27,91
6915,0;27,92
6918,8;27,92
6922,5;27,93
6926,3;27,92
6930,0;27,91
6933,8;27,92
6937,5;27,93
6941,3;27,94
6945,0;27,94
6948,8;27,93
6952,5;27,92
6956,3;27,92
6960,0;27,93
6963,8;27,95
6967,5;27,96
6971,3;27,97
6975,0;27,99
6978,8;28,02
6982,5;28,04
6986,3;28,06
6990,0;28,07
6993,8;28,06
6997,5;28,05
7001,3;28,03
7005,0;28,01
7008,8;27,98
7012,5;27,96
7016,3;27,93
7020,0;27,91
7023,8;27,90
7027,5;27,90
7031,3;27,91
7035,0;27,92
7038,8;27,94
7042,5;27,95
7046,3;27,95
7050,0;27,95
7053,8;27,94
7057,5;27,93
7061,3;27,91
7065,0;27,89
7068,8;27,88
7072,5;27,88
7076,3;27,87
7080,0;27,86
7083,8;27,84
7087,5;27,83
7091,3;27,84
7095,0;27,87
7098,8;27,91
7102,5;27,95
7106,3;27,98
7110,0;27,99
7113,8;27,99
7117,5;27,98
7121,3;27,97
7125,0;27,95
7128,8;27,93
7132,5;27,91
7136,3;27,90
7140,0;27,90
7143,8;27,92
7147,5;27,94
7151,3;27,96
7155,0;27,96
7158,8;27,95
7162,5;27,93
7166,3;27,92
7170,0;27,90
7173,8;27,90
7177,5;27,89
7181,3;27,88
7185,0;27,87
7188,8;27,86
7192,5;27,87
7196,3;27,87
7200,0;27,88
7203,8;27,88
7207,5;27,87
7211,3;27,86
7215,0;27,86
7218,8;27,86
7222,5;27,87
7226,3;27,87
7230,0;27,85
7233,8;27,82
7237,5;27,79
7241,3;27,76
7245,0;27,74
7248,8;27,73
7252,5;27,74
7256,3;27,74
7260,0;27,75
7263,8;27,76
7267,5;27,77
7271,3;27,78
7275,0;27,79
7278,8;27,80
7282,5;27,82
7286,3;27,83
7290,0;27,84
7293,8;27,86
7297,5;27,86
7301,3;27,87
7305,0;27,86
7308,8;27,84
7312,5;27,82
7316,3;27,79
7320,0;27,77
7323,8;27,76
7327,5;27,76
7331,3;27,77
7335,0;27,78
7338,8;27,80
7342,5;27,82
7346,3;27,83
7350,0;27,85
7353,8;27,86
7357,5;27,88
7361,3;27,90
7365,0;27,92
7368,8;27,95
7372,5;27,97
7376,3;27,98
7380,0;27,98
7383,8;27,96
7387,5;27,93
7391,3;27,90
7395,0;27,88
7398,8;27,86
7402,5;27,85
7406,3;27,84
7410,0;27,83
7413,8;27,82
7417,5;27,83
7421,3;27,84
7425,0;27,86
7428,8;27,88
7432,5;27,90
7436,3;27,90
7440,0;27,89
7443,8;27,87
7447,5;27,86
7451,3;27,84
7455,0;27,84
7458,8;27,83
7462,5;27,82
7466,3;27,81
7470,0;27,80
7473,8;27,79
7477,5;27,78
7481,3;27,78
7485,0;27,78
7488,8;27,79
7492,5;27,79
7496,3;27,80
7500,0;27,81
7503,8;27,82
7507,5;27,82
7511,3;27,82
7515,0;27,82
7518,8;27,83
7522,5;27,84
7526,3;27,85
7530,0;27,87
7533,8;27,88
7537,5;27,87
7541,3;27,85
7545,0;27,81
7548,8;27,77
7552,5;27,74
7556,3;27,73
7560,0;27,74
7563,8;27,75
7567,5;27,76
7571,3;27,76
7575,0;27,76
7578,8;27,75
7582,5;27,73
7586,3;27,73
7590,0;27,72
7593,8;27,72
7597,5;27,72
7601,3;27,71
7605,0;27,71
7608,8;27,71
7612,5;27,70
7616,3;27,70
7620,0;27,70
7623,8;27,69
7627,5;27,68
7631,3;27,67
7635,0;27,67
7638,8;27,68
7642,5;27,69
7646,3;27,71
7650,0;27,71
7653,8;27,70
7657,5;27,68
7661,3;27,66
7665,0;27,65
7668,8;27,64
7672,5;27,64
7676,3;27,64
7680,0;27,64
7683,8;27,63
7687,5;27,62
7691,3;27,63
7695,0;27,64
7698,8;27,65
7702,5;27,66
7706,3;27,67
7710,0;27,66
7713,8;27,65
7717,5;27,63
7721,3;27,63
7725,0;27,62
7728,8;27,63
7732,5;27,63
7736,3;27,63
7740,0;27,62
7743,8;27,61
7747,5;27,59
7751,3;27,58
7755,0;27,56
7758,8;27,54
7762,5;27,53
7766,3;27,52
7770,0;27,51
7773,8;27,51
7777,5;27,51
7781,3;27,52
7785,0;27,53
7788,8;27,55
7792,5;27,57
7796,3;27,59
7800,0;27,60
7803,8;27,61
7807,5;27,62
7811,3;27,62
7815,0;27,61
7818,8;27,61
7822,5;27,60
7826,3;27,59
7830,0;27,59
7833,8;27,59
7837,5;27,61
7841,3;27,62
7845,0;27,63
7848,8;27,63
7852,5;27,62
7856,3;27,60
7860,0;27,58
7863,8;27,57
7867,5;27,56
7871,3;27,55
7875,0;27,54
7878,8;27,53
7882,5;27,52
7886,3;27,49
7890,0;27,47
7893,8;27,45
7897,5;27,44
7901,3;27,44
7905,0;27,44
7908,8;27,44
7912,5;27,43
7916,3;27,42
7920,0;27,41
7923,8;27,40
7927,5;27,40
7931,3;27,41
7935,0;27,42
7938,8;27,43
7942,5;27,45
7946,3;27,46
7950,0;27,46
7953,8;27,47
7957,5;27,46
7961,3;27,46
7965,0;27,46
7968,8;27,46
7972,5;27,47
7976,3;27,48
7980,0;27,48
7983,8;27,49
7987,5;27,49
7991,3;27,49
7995,0;27,48
7998,8;27,48
8002,5;27,47
8006,3;27,47
8010,0;27,46
8013,8;27,45
8017,5;27,44
8021,3;27,43
8025,0;27,43
8028,8;27,43
8032,5;27,43
8036,3;27,42
8040,0;27,42
8043,8;27,41
8047,5;27,40
8051,3;27,40
8055,0;27,41
8058,8;27,43
8062,5;27,45
8066,3;27,46
8070,0;27,47
8073,8;27,47
8077,5;27,46
8081,3;27,45
8085,0;27,43
8088,8;27,42
8092,5;27,41
8096,3;27,40
8100,0;27,39
8103,8;27,39
8107,5;27,39
8111,3;27,40
8115,0;27,41
8118,8;27,41
8122,5;27,41
8126,3;27,40
8130,0;27,38
8133,8;27,37
8137,5;27,35
8141,3;27,35
8145,0;27,35
8148,8;27,36
8152,5;27,38
8156,3;27,40
8160,0;27,42
8163,8;27,43
8167,5;27,43
8171,3;27,42
8175,0;27,40
8178,8;27,38
8182,5;27,36
8186,3;27,35
8190,0;27,34
8193,8;27,35
8197,5;27,36
8201,3;27,39
8205,0;27,42
8208,8;27,44
8212,5;27,46
8216,3;27,47
8220,0;27,46
8223,8;27,45
8227,5;27,42
8231,3;27,40
8235,0;27,38
8238,8;27,37
8242,5;27,37
8246,3;27,37
8250,0;27,37
8253,8;27,36
8257,5;27,35
8261,3;27,33
8265,0;27,32
8268,8;27,31
8272,5;27,30
8276,3;27,30
8280,0;27,30
8283,8;27,31
8287,5;27,31
8291,3;27,31
8295,0;27,31
8298,8;27,30
8302,5;27,29
8306,3;27,28
8310,0;27,28
8313,8;27,28
8317,5;27,28
8321,3;27,29
8325,0;27,30
8328,8;27,30
8332,5;27,30
8336,3;27,29
8340,0;27,28
8343,8;27,27
8347,5;27,26
8351,3;27,26
8355,0;27,26
8358,8;27,25
8362,5;27,25
8366,3;27,24
8370,0;27,23
8373,8;27,23
8377,5;27,22
8381,3;27,23
8385,0;27,23
8388,8;27,24
8392,5;27,25
8396,3;27,26
8400,0;27,27
8403,8;27,28
8407,5;27,28
8411,3;27,28
8415,0;27,27
8418,8;27,26
8422,5;27,24
8426,3;27,22
8430,0;27,20
8433,8;27,18
8437,5;27,16
8441,3;27,15
8445,0;27,16
8448,8;27,16
8452,5;27,18
8456,3;27,20
8460,0;27,21
8463,8;27,21
8467,5;27,20
8471,3;27,19
8475,0;27,17
8478,8;27,15
8482,5;27,13
8486,3;27,12
8490,0;27,13
8493,8;27,13
8497,5;27,15
8501,3;27,16
8505,0;27,17
8508,8;27,18
8512,5;27,19
8516,3;27,19
8520,0;27,20
8523,8;27,20
8527,5;27,20
8531,3;27,19
8535,0;27,18
8538,8;27,17
8542,5;27,16
8546,3;27,15
8550,0;27,15
8553,8;27,14
8557,5;27,12
8561,3;27,10
8565,0;27,08
8568,8;27,05
8572,5;27,03
8576,3;27,01
8580,0;26,99
8583,8;26,98
8587,5;26,97
8591,3;26,97
8595,0;26,97
8598,8;26,98
8602,5;27,00
8606,3;27,02
8610,0;27,04
8613,8;27,06
8617,5;27,07
8621,3;27,08
8625,0;27,07
8628,8;27,06
8632,5;27,04
8636,3;27,01
8640,0;26,99
8643,8;26,96
8647,5;26,94
8651,3;26,93
8655,0;26,92
8658,8;26,91
8662,5;26,91
8666,3;26,92
8670,0;26,92
8673,8;26,93
8677,5;26,93
8681,3;26,93
8685,0;26,93
8688,8;26,93
8692,5;26,93
8696,3;26,93
8700,0;26,93
8703,8;26,94
8707,5;26,94
8711,3;26,94
8715,0;26,93
8718,8;26,92
8722,5;26,91
8726,3;26,90
8730,0;26,90
8733,8;26,90
8737,5;26,91
8741,3;26,91
8745,0;26,92
8748,8;26,92
8752,5;26,93
8756,3;26,94
8760,0;26,95
8763,8;26,96
8767,5;26,98
8771,3;26,99
8775,0;27,00
8778,8;27,00
8782,5;26,99
8786,3;26,97
8790,0;26,94
8793,8;26,91
8797,5;26,88
8801,3;26,86
8805,0;26,84
8808,8;26,83
8812,5;26,82
8816,3;26,82
8820,0;26,81
8823,8;26,80
8827,5;26,79
8831,3;26,79
8835,0;26,78
8838,8;26,77
8842,5;26,76
8846,3;26,75
8850,0;26,74
8853,8;26,73
8857,5;26,72
8861,3;26,71
8865,0;26,70
8868,8;26,70
8872,5;26,70
8876,3;26,70
8880,0;26,71
8883,8;26,71
8887,5;26,72
8891,3;26,73
8895,0;26,73
8898,8;26,74
8902,5;26,74
8906,3;26,75
8910,0;26,75
8913,8;26,76
8917,5;26,76
8921,3;26,77
8925,0;26,77
8928,8;26,76
8932,5;26,75
8936,3;26,74
8940,0;26,73
8943,8;26,73
8947,5;26,73
8951,3;26,74
8955,0;26,75
8958,8;26,77
8962,5;26,78
8966,3;26,79
8970,0;26,79
8973,8;26,78
8977,5;26,77
8981,3;26,75
8985,0;26,73
8988,8;26,72
8992,5;26,70
8996,3;26,68
9000,0;26,67
9003,8;26,66
9007,5;26,65
9011,3;26,65
9015,0;26,65
9018,8;26,67
9022,5;26,68
9026,3;26,70
9030,0;26,72
9033,8;26,74
9037,5;26,75
9041,3;26,75
9045,0;26,74
9048,8;26,72
9052,5;26,71
9056,3;26,69
9060,0;26,68
9063,8;26,68
9067,5;26,68
9071,3;26,68
9075,0;26,69
9078,8;26,69
9082,5;26,68
9086,3;26,68
9090,0;26,66
9093,8;26,65
9097,5;26,64
9101,3;26,63
9105,0;26,63
9108,8;26,63
9112,5;26,64
9116,3;26,64
9120,0;26,64
9123,8;26,63
9127,5;26,62
9131,3;26,61
9135,0;26,61
9138,8;26,60
9142,5;26,60
9146,3;26,60
9150,0;26,60
9153,8;26,60
9157,5;26,60
9161,3;26,59
9165,0;26,58
9168,8;26,57
9172,5;26,56
9176,3;26,55
9180,0;26,55
9183,8;26,54
9187,5;26,54
9191,3;26,54
9195,0;26,55
9198,8;26,56
9202,5;26,57
9206,3;26,58
9210,0;26,60
9213,8;26,62
9217,5;26,64
9221,3;26,66
9225,0;26,67
9228,8;26,67
9232,5;26,67
9236,3;26,67
9240,0;26,66
9243,8;26,65
9247,5;26,64
9251,3;26,63
9255,0;26,62
9258,8;26,61
9262,5;26,60
9266,3;26,59
9270,0;26,58
9273,8;26,57
9277,5;26,56
9281,3;26,56
9285,0;26,56
9288,8;26,56
9292,5;26,56
9296,3;26,56
9300,0;26,55
9303,8;26,55
9307,5;26,54
9311,3;26,54
9315,0;26,53
9318,8;26,52
9322,5;26,51
9326,3;26,51
9330,0;26,50
9333,8;26,50
9337,5;26,50
9341,3;26,51
9345,0;26,52
9348,8;26,54
9352,5;26,56
9356,3;26,58
9360,0;26,60
9363,8;26,63
9367,5;26,65
9371,3;26,67
9375,0;26,68
9378,8;26,68
9382,5;26,68
9386,3;26,68
9390,0;26,67
9393,8;26,67
9397,5;26,66
9401,3;26,66
9405,0;26,66
9408,8;26,65
9412,5;26,65
9416,3;26,64
9420,0;26,62
9423,8;26,61
9427,5;26,59
9431,3;26,58
9435,0;26,56
9438,8;26,54
9442,5;26,52
9446,3;26,50
9450,0;26,48
9453,8;26,46
9457,5;26,44
9461,3;26,42
9465,0;26,41
9468,8;26,40
9472,5;26,41
9476,3;26,42
9480,0;26,45
9483,8;26,48
9487,5;26,51
9491,3;26,53
9495,0;26,55
9498,8;26,55
9502,5;26,55
9506,3;26,53
9510,0;26,51
9513,8;26,49
9517,5;26,47
9521,3;26,45
9525,0;26,44
9528,8;26,44
9532,5;26,45
9536,3;26,45
9540,0;26,45
9543,8;26,46
9547,5;26,45
9551,3;26,44
9555,0;26,43
9558,8;26,41
9562,5;26,39
9566,3;26,38
9570,0;26,37
9573,8;26,36
9577,5;26,37
9581,3;26,37
9585,0;26,38
9588,8;26,40
9592,5;26,42
9596,3;26,44
9600,0;26,46
9603,8;26,48
9607,5;26,50
9611,3;26,53
9615,0;26,55
9618,8;26,57
9622,5;26,59
9626,3;26,61
9630,0;26,62
9633,8;26,63
9637,5;26,63
9641,3;26,63
9645,0;26,63
9648,8;26,62
9652,5;26,62
9656,3;26,61
9660,0;26,61
9663,8;26,61
9667,5;26,60
9671,3;26,60
9675,0;26,59
9678,8;26,58
9682,5;26,57
9686,3;26,56
9690,0;26,55
9693,8;26,54
9697,5;26,53
9701,3;26,53
9705,0;26,53
9708,8;26,54
9712,5;26,56
9716,3;26,57
9720,0;26,58
9723,8;26,59
9727,5;26,58
9731,3;26,58
9735,0;26,56
9738,8;26,54
9742,5;26,52
9746,3;26,50
9750,0;26,48
9753,8;26,48
9757,5;26,48
9761,3;26,48
9765,0;26,50
9768,8;26,51
9772,5;26,53
9776,3;26,55
9780,0;26,57
9783,8;26,58
9787,5;26,60
9791,3;26,61
9795,0;26,63
9798,8;26,64
9802,5;26,64
9806,3;26,65
9810,0;26,65
9813,8;26,64
9817,5;26,63
9821,3;26,62
9825,0;26,60
9828,8;26,59
9832,5;26,58
9836,3;26,57
9840,0;26,57
9843,8;26,58
9847,5;26,59
9851,3;26,60
9855,0;26,62
9858,8;26,64
9862,5;26,66
9866,3;26,68
9870,0;26,71
9873,8;26,73
9877,5;26,75
9881,3;26,77
9885,0;26,78
9888,8;26,78
9892,5;26,78
9896,3;26,77
9900,0;26,75
9903,8;26,72
9907,5;26,69
9911,3;26,66
9915,0;26,63
9918,8;26,60
9922,5;26,58
9926,3;26,57
9930,0;26,56
9933,8;26,56
9937,5;26,57
9941,3;26,58
9945,0;26,59
9948,8;26,60
9952,5;26,61
9956,3;26,62
9960,0;26,63
9963,8;26,64
9967,5;26,64
9971,3;26,64
9975,0;26,64
9978,8;26,64
9982,5;26,63
9986,3;26,63
9990,0;26,62
9993,8;26,62
9997,5;26,62
10001,3;26,61
10005,0;26,61
10008,8;26,62
10012,5;26,62
10016,3;26,62
10020,0;26,63
10023,8;26,64
10027,5;26,64
10031,3;26,65
10035,0;26,65
10038,8;26,65
10042,5;26,65
10046,3;26,65
10050,0;26,64
10053,8;26,64
10057,5;26,63
10061,3;26,63
10065,0;26,63
10068,8;26,63
10072,5;26,64
10076,3;26,64
10080,0;26,65
10083,8;26,66
10087,5;26,67
10091,3;26,67
10095,0;26,68
10098,8;26,68
10102,5;26,67
10106,3;26,67
10110,0;26,66
10113,8;26,65
10117,5;26,65
10121,3;26,64
10125,0;26,63
10128,8;26,63
10132,5;26,63
10136,3;26,62
10140,0;26,62
10143,8;26,62
10147,5;26,61
10151,3;26,61
10155,0;26,60
10158,8;26,59
10162,5;26,57
10166,3;26,55
10170,0;26,53
10173,8;26,52
10177,5;26,50
10181,3;26,50
10185,0;26,49
10188,8;26,49
10192,5;26,50
10196,3;26,52
10200,0;26,53
10203,8;26,55
10207,5;26,57
10211,3;26,58
10215,0;26,59
10218,8;26,59
10222,5;26,58
10226,3;26,57
10230,0;26,56
10233,8;26,55
10237,5;26,54
10241,3;26,52
10245,0;26,52
10248,8;26,51
10252,5;26,51
10256,3;26,51
10260,0;26,51
10263,8;26,51
10267,5;26,51
10271,3;26,51
10275,0;26,51
10278,8;26,51
10282,5;26,51
10286,3;26,51
10290,0;26,51
10293,8;26,51
10297,5;26,51
10301,3;26,50
10305,0;26,50
10308,8;26,49
10312,5;26,48
10316,3;26,47
10320,0;26,45
10323,8;26,44
10327,5;26,44
10331,3;26,43
10335,0;26,43
10338,8;26,43
10342,5;26,44
10346,3;26,45
10350,0;26,46
10353,8;26,48
10357,5;26,49
10361,3;26,50
10365,0;26,51
10368,8;26,51
10372,5;26,52
10376,3;26,52
10380,0;26,52
10383,8;26,51
10387,5;26,51
10391,3;26,51
10395,0;26,50
10398,8;26,50
10402,5;26,49
10406,3;26,49
10410,0;26,48
10413,8;26,48
10417,5;26,48
10421,3;26,48
10425,0;26,48
10428,8;26,48
10432,5;26,48
10436,3;26,49
10440,0;26,50
10443,8;26,50
10447,5;26,51
10451,3;26,52
10455,0;26,53
10458,8;26,54
10462,5;26,54
10466,3;26,54
10470,0;26,54
10473,8;26,53
10477,5;26,53
10481,3;26,51
10485,0;26,50
10488,8;26,49
10492,5;26,48
10496,3;26,46
10500,0;26,45
10503,8;26,44
10507,5;26,43
10511,3;26,43
10515,0;26,42
10518,8;26,42
10522,5;26,41
10526,3;26,41
10530,0;26,41
10533,8;26,42
10537,5;26,42
10541,3;26,43
10545,0;26,43
10548,8;26,44
10552,5;26,45
10556,3;26,45
10560,0;26,46
10563,8;26,46
10567,5;26,46
10571,3;26,46
10575,0;26,46
10578,8;26,47
10582,5;26,47
10586,3;26,47
10590,0;26,47
10593,8;26,48
10597,5;26,48
10601,3;26,49
10605,0;26,50
10608,8;26,52
10612,5;26,53
10616,3;26,54
10620,0;26,55
10623,8;26,57
10627,5;26,58
10631,3;26,59
10635,0;26,59
10638,8;26,60
10642,5;26,60
10646,3;26,60
10650,0;26,60
10653,8;26,60
10657,5;26,59
10661,3;26,59
10665,0;26,58
10668,8;26,57
10672,5;26,56
10676,3;26,55
10680,0;26,54
10683,8;26,53
10687,5;26,52
10691,3;26,50
10695,0;26,49
10698,8;26,47
10702,5;26,46
10706,3;26,45
10710,0;26,44
10713,8;26,44
10717,5;26,44
10721,3;26,44
10725,0;26,44
10728,8;26,45
10732,5;26,45
10736,3;26,45
10740,0;26,45
10743,8;26,45
10747,5;26,45
10751,3;26,44
10755,0;26,43
10758,8;26,41
10762,5;26,40
10766,3;26,38
10770,0;26,37
10773,8;26,36
10777,5;26,35
10781,3;26,35
10785,0;26,35
10788,8;26,35
10792,5;26,35
10796,3;26,35
10800,0;26,36
10803,8;26,36
10807,5;26,37
10811,3;26,38
10815,0;26,39
10818,8;26,39
10822,5;26,40
10826,3;26,41
10830,0;26,42
10833,8;26,43
10837,5;26,44
10841,3;26,44
10845,0;26,45
10848,8;26,46
10852,5;26,46
10856,3;26,46
10860,0;26,46
10863,8;26,46
10867,5;26,46
10871,3;26,45
10875,0;26,44
10878,8;26,43
10882,5;26,41
10886,3;26,40
10890,0;26,38
10893,8;26,37
10897,5;26,35
10901,3;26,34
10905,0;26,32
10908,8;26,31
10912,5;26,31
10916,3;26,30
10920,0;26,29
10923,8;26,29
10927,5;26,29
10931,3;26,28
10935,0;26,28
10938,8;26,27
10942,5;26,26
10946,3;26,26
10950,0;26,25
10953,8;26,24
10957,5;26,24
10961,3;26,23
10965,0;26,23
10968,8;26,22
10972,5;26,22
10976,3;26,21
10980,0;26,21
10983,8;26,21
10987,5;26,20
10991,3;26,20
10995,0;26,20
10998,8;26,19
11002,5;26,19
11006,3;26,19
11010,0;26,19
11013,8;26,19
11017,5;26,19
11021,3;26,19
11025,0;26,20
11028,8;26,20
11032,5;26,20
11036,3;26,21
11040,0;26,21
11043,8;26,22
11047,5;26,22
11051,3;26,23
11055,0;26,24
11058,8;26,25
11062,5;26,26
11066,3;26,27
11070,0;26,29
11073,8;26,30
11077,5;26,31
11081,3;26,31
11085,0;26,32
11088,8;26,32
11092,5;26,31
11096,3;26,30
11100,0;26,29
11103,8;26,27
11107,5;26,26
11111,3;26,24
11115,0;26,22
11118,8;26,20
11122,5;26,18
11126,3;26,17
11130,0;26,16
11133,8;26,15
11137,5;26,14
11141,3;26,14
11145,0;26,15
11148,8;26,15
11152,5;26,16
11156,3;26,17
11160,0;26,19
11163,8;26,20
11167,5;26,21
11171,3;26,22
11175,0;26,23
11178,8;26,24
11182,5;26,25
11186,3;26,25
11190,0;26,25
11193,8;26,25
11197,5;26,25
11201,3;26,24
11205,0;26,24
11208,8;26,23
11212,5;26,22
11216,3;26,21
11220,0;26,20
11223,8;26,19
11227,5;26,18
11231,3;26,17
11235,0;26,16
11238,8;26,15
11242,5;26,14
11246,3;26,13
11250,0;26,13
11253,8;26,13
11257,5;26,14
11261,3;26,15
11265,0;26,16
11268,8;26,18
11272,5;26,19
11276,3;26,20
11280,0;26,21
11283,8;26,22
11287,5;26,23
11291,3;26,23
11295,0;26,23
11298,8;26,22
11302,5;26,22
11306,3;26,21
11310,0;26,20
11313,8;26,19
11317,5;26,18
11321,3;26,17
11325,0;26,15
11328,8;26,14
11332,5;26,13
11336,3;26,12
11340,0;26,11
11343,8;26,11
11347,5;26,10
11351,3;26,10
11355,0;26,10
11358,8;26,10
11362,5;26,11
11366,3;26,12
11370,0;26,14
11373,8;26,15
11377,5;26,17
11381,3;26,19
11385,0;26,21
11388,8;26,22
11392,5;26,24
11396,3;26,25
11400,0;26,26
11403,8;26,26
11407,5;26,27
11411,3;26,27
11415,0;26,27
11418,8;26,28
11422,5;26,28
11426,3;26,29
11430,0;26,29
11433,8;26,30
11437,5;26,30
11441,3;26,31
11445,0;26,32
11448,8;26,32
11452,5;26,32
11456,3;26,33
11460,0;26,33
11463,8;26,33
11467,5;26,33
11471,3;26,33
11475,0;26,33
11478,8;26,34
11482,5;26,34
11486,3;26,34
11490,0;26,35
11493,8;26,35
11497,5;26,35
11501,3;26,35
11505,0;26,35
11508,8;26,35
11512,5;26,35
11516,3;26,35
11520,0;26,36
11523,8;26,36
11527,5;26,37
11531,3;26,38
11535,0;26,39
11538,8;26,40
11542,5;26,41
11546,3;26,42
11550,0;26,44
11553,8;26,44
11557,5;26,45
11561,3;26,45
11565,0;26,45
11568,8;26,44
11572,5;26,43
11576,3;26,42
11580,0;26,41
11583,8;26,39
11587,5;26,38
11591,3;26,37
11595,0;26,36
11598,8;26,35
11602,5;26,35
11606,3;26,34
11610,0;26,34
11613,8;26,34
11617,5;26,35
11621,3;26,35
11625,0;26,36
11628,8;26,37
11632,5;26,38
11636,3;26,39
11640,0;26,41
11643,8;26,42
11647,5;26,43
11651,3;26,45
11655,0;26,47
11658,8;26,49
11662,5;26,50
11666,3;26,52
11670,0;26,54
11673,8;26,56
11677,5;26,57
11681,3;26,59
11685,0;26,60
11688,8;26,61
11692,5;26,62
11696,3;26,62
11700,0;26,62
11703,8;26,62
11707,5;26,62
11711,3;26,61
11715,0;26,61
11718,8;26,59
11722,5;26,58
11726,3;26,57
11730,0;26,56
11733,8;26,54
11737,5;26,53
11741,3;26,53
11745,0;26,53
11748,8;26,53
11752,5;26,53
11756,3;26,54
11760,0;26,55
11763,8;26,57
11767,5;26,58
11771,3;26,60
11775,0;26,61
11778,8;26,63
11782,5;26,64
11786,3;26,65
11790,0;26,66
11793,8;26,66
11797,5;26,66
11801,3;26,67
11805,0;26,66
11808,8;26,66
11812,5;26,67
11816,3;26,67
11820,0;26,67
11823,8;26,67
11827,5;26,68
11831,3;26,69
11835,0;26,70
11838,8;26,71
11842,5;26,72
11846,3;26,73
11850,0;26,74
11853,8;26,75
11857,5;26,76
11861,3;26,76
11865,0;26,77
11868,8;26,77
11872,5;26,76
11876,3;26,76
11880,0;26,75
11883,8;26,75
11887,5;26,74
11891,3;26,73
11895,0;26,72
11898,8;26,72
11902,5;26,71
11906,3;26,71
11910,0;26,71
11913,8;26,71
11917,5;26,71
11921,3;26,71
11925,0;26,72
11928,8;26,73
11932,5;26,73
11936,3;26,74
11940,0;26,74
11943,8;26,74
11947,5;26,74
11951,3;26,74
11955,0;26,74
11958,8;26,73
11962,5;26,72
11966,3;26,71
11970,0;26,70
11973,8;26,69
11977,5;26,68
11981,3;26,67
11985,0;26,67
11988,8;26,66
11992,5;26,66
11996,3;26,66
12000,0;26,66
12003,8;26,66
12007,5;26,66
12011,3;26,66
12015,0;26,66
12018,8;26,66
12022,5;26,66
12026,3;26,66
12030,0;26,66
12033,8;26,66
12037,5;26,66
12041,3;26,66
12045,0;26,66
12048,8;26,66
12052,5;26,66
12056,3;26,67
12060,0;26,67
12063,8;26,67
12067,5;26,68
12071,3;26,68
12075,0;26,68
12078,8;26,68
12082,5;26,68
12086,3;26,67
12090,0;26,67
12093,8;26,66
12097,5;26,65
12101,3;26,64
12105,0;26,63
12108,8;26,62
12112,5;26,61
12116,3;26,61
12120,0;26,60
12123,8;26,59
12127,5;26,58
12131,3;26,58
12135,0;26,57
12138,8;26,57
12142,5;26,56
12146,3;26,56
12150,0;26,55
12153,8;26,55
12157,5;26,55
12161,3;26,54
12165,0;26,54
12168,8;26,54
12172,5;26,55
12176,3;26,55
12180,0;26,56
12183,8;26,57
12187,5;26,57
12191,3;26,59
12195,0;26,60
12198,8;26,61
12202,5;26,62
12206,3;26,63
12210,0;26,64
12213,8;26,64
12217,5;26,64
12221,3;26,64
12225,0;26,64
12228,8;26,64
12232,5;26,63
12236,3;26,62
12240,0;26,61
12243,8;26,60
12247,5;26,59
12251,3;26,57
12255,0;26,56
12258,8;26,55
12262,5;26,54
12266,3;26,53
12270,0;26,53
12273,8;26,52
12277,5;26,52
12281,3;26,53
12285,0;26,53
12288,8;26,54
12292,5;26,55
12296,3;26,56
12300,0;26,57
12303,8;26,59
12307,5;26,60
12311,3;26,62
12315,0;26,63
12318,8;26,65
12322,5;26,66
12326,3;26,67
12330,0;26,68
12333,8;26,69
12337,5;26,69
12341,3;26,70
12345,0;26,70
12348,8;26,70
12352,5;26,70
12356,3;26,71
12360,0;26,71
12363,8;26,71
12367,5;26,72
12371,3;26,73
12375,0;26,73
12378,8;26,74
12382,5;26,75
12386,3;26,76
12390,0;26,77
12393,8;26,77
12397,5;26,78
12401,3;26,78
12405,0;26,78
12408,8;26,77
12412,5;26,77
12416,3;26,76
12420,0;26,75
12423,8;26,74
12427,5;26,73
12431,3;26,73
12435,0;26,72
12438,8;26,72
12442,5;26,72
12446,3;26,73
12450,0;26,74
12453,8;26,75
12457,5;26,76
12461,3;26,77
12465,0;26,79
12468,8;26,80
12472,5;26,82
12476,3;26,82
12480,0;26,83
12483,8;26,83
12487,5;26,83
12491,3;26,83
12495,0;26,82
12498,8;26,81
12502,5;26,80
12506,3;26,78
12510,0;26,77
12513,8;26,76
12517,5;26,74
12521,3;26,73
12525,0;26,72
12528,8;26,72
12532,5;26,71
12536,3;26,71
12540,0;26,71
12543,8;26,71
12547,5;26,71
12551,3;26,71
12555,0;26,71
12558,8;26,71
12562,5;26,71
12566,3;26,71
12570,0;26,71
12573,8;26,71
12577,5;26,71
12581,3;26,70
12585,0;26,70
12588,8;26,70
12592,5;26,69
12596,3;26,69
12600,0;26,68
12603,8;26,68
12607,5;26,68
12611,3;26,68
12615,0;26,68
12618,8;26,68
12622,5;26,68
12626,3;26,69
12630,0;26,69
12633,8;26,69
12637,5;26,70
12641,3;26,70
12645,0;26,71
12648,8;26,71
12652,5;26,72
12656,3;26,73
12660,0;26,73
12663,8;26,74
12667,5;26,74
12671,3;26,74
12675,0;26,75
12678,8;26,75
12682,5;26,74
12686,3;26,74
12690,0;26,74
12693,8;26,73
12697,5;26,72
12701,3;26,71
12705,0;26,70
12708,8;26,69
12712,5;26,68
12716,3;26,67
12720,0;26,66
12723,8;26,65
12727,5;26,65
12731,3;26,64
12735,0;26,65
12738,8;26,65
12742,5;26,65
12746,3;26,66
12750,0;26,68
12753,8;26,69
12757,5;26,71
12761,3;26,73
12765,0;26,75
12768,8;26,76
12772,5;26,78
12776,3;26,80
12780,0;26,81
12783,8;26,82
12787,5;26,83
12791,3;26,83
12795,0;26,84
12798,8;26,83
12802,5;26,83
12806,3;26,82
12810,0;26,82
12813,8;26,81
12817,5;26,80
12821,3;26,80
12825,0;26,79
12828,8;26,78
12832,5;26,78
12836,3;26,78
12840,0;26,77
12843,8;26,77
12847,5;26,77
12851,3;26,78
12855,0;26,78
12858,8;26,78
12862,5;26,78
12866,3;26,78
12870,0;26,79
12873,8;26,79
12877,5;26,79
12881,3;26,79
12885,0;26,79
12888,8;26,79
12892,5;26,79
12896,3;26,80
12900,0;26,80
12903,8;26,80
12907,5;26,80
12911,3;26,81
12915,0;26,81
12918,8;26,82
12922,5;26,83
12926,3;26,83
12930,0;26,84
12933,8;26,84
12937,5;26,85
12941,3;26,85
12945,0;26,85
12948,8;26,85
12952,5;26,85
12956,3;26,85
12960,0;26,85
12963,8;26,84
12967,5;26,84
12971,3;26,83
12975,0;26,83
12978,8;26,82
12982,5;26,81
12986,3;26,80
12990,0;26,80
12993,8;26,79
12997,5;26,79
13001,3;26,78
13005,0;26,78
13008,8;26,78
13012,5;26,77
13016,3;26,77
13020,0;26,77
13023,8;26,76
13027,5;26,76
13031,3;26,75
13035,0;26,75
13038,8;26,74
13042,5;26,74
13046,3;26,73
13050,0;26,73
13053,8;26,72
13057,5;26,72
13061,3;26,72
13065,0;26,72
13068,8;26,72
13072,5;26,72
13076,3;26,72
13080,0;26,72
13083,8;26,73
13087,5;26,73
13091,3;26,74
13095,0;26,74
13098,8;26,75
13102,5;26,75
13106,3;26,76
13110,0;26,76
13113,8;26,76
13117,5;26,76
13121,3;26,76
13125,0;26,75
13128,8;26,75
13132,5;26,74
13136,3;26,74
13140,0;26,73
13143,8;26,72
13147,5;26,71
13151,3;26,70
13155,0;26,69
13158,8;26,68
13162,5;26,68
13166,3;26,67
13170,0;26,66
13173,8;26,65
13177,5;26,65
13181,3;26,64
13185,0;26,63
13188,8;26,63
13192,5;26,62
13196,3;26,62
13200,0;26,61
13203,8;26,61
13207,5;26,60
13211,3;26,60
13215,0;26,60
13218,8;26,59
13222,5;26,59
13226,3;26,59
13230,0;26,59
13233,8;26,59
13237,5;26,60
13241,3;26,60
13245,0;26,60
13248,8;26,61
13252,5;26,61
13256,3;26,62
13260,0;26,62
13263,8;26,63
13267,5;26,64
13271,3;26,64
13275,0;26,65
13278,8;26,66
13282,5;26,66
13286,3;26,67
13290,0;26,68
13293,8;26,69
13297,5;26,70
13301,3;26,70
13305,0;26,71
13308,8;26,72
13312,5;26,73
13316,3;26,73
13320,0;26,74
13323,8;26,74
13327,5;26,75
13331,3;26,75
13335,0;26,75
13338,8;26,75
13342,5;26,74
13346,3;26,73
13350,0;26,73
13353,8;26,72
13357,5;26,71
13361,3;26,69
13365,0;26,68
13368,8;26,66
13372,5;26,65
13376,3;26,64
13380,0;26,62
13383,8;26,61
13387,5;26,60
13391,3;26,59
13395,0;26,58
13398,8;26,58
13402,5;26,57
13406,3;26,57
13410,0;26,57
13413,8;26,57
13417,5;26,57
13421,3;26,57
13425,0;26,58
13428,8;26,58
13432,5;26,59
13436,3;26,59
13440,0;26,59
13443,8;26,60
13447,5;26,60
13451,3;26,60
13455,0;26,60
13458,8;26,60
13462,5;26,60
13466,3;26,60
13470,0;26,59
13473,8;26,59
13477,5;26,58
13481,3;26,58
13485,0;26,58
13488,8;26,58
13492,5;26,58
13496,3;26,58
13500,0;26,59
13503,8;26,59
13507,5;26,60
13511,3;26,61
13515,0;26,62
13518,8;26,63
13522,5;26,64
13526,3;26,65
13530,0;26,66
13533,8;26,67
13537,5;26,68
13541,3;26,68
13545,0;26,68
13548,8;26,69
13552,5;26,69
13556,3;26,69
13560,0;26,69
13563,8;26,68
13567,5;26,68
13571,3;26,67
13575,0;26,67
13578,8;26,66
13582,5;26,66
13586,3;26,66
13590,0;26,65
13593,8;26,65
13597,5;26,65
13601,3;26,66
13605,0;26,66
13608,8;26,66
13612,5;26,66
13616,3;26,67
13620,0;26,67
13623,8;26,68
13627,5;26,68
13631,3;26,68
13635,0;26,69
13638,8;26,69
13642,5;26,69
13646,3;26,70
13650,0;26,70
13653,8;26,70
13657,5;26,71
13661,3;26,71
13665,0;26,72
13668,8;26,72
13672,5;26,73
13676,3;26,74
13680,0;26,75
13683,8;26,75
13687,5;26,76
13691,3;26,77
13695,0;26,77
13698,8;26,78
13702,5;26,78
13706,3;26,79
13710,0;26,79
13713,8;26,79
13717,5;26,79
13721,3;26,79
13725,0;26,78
13728,8;26,78
13732,5;26,78
13736,3;26,78
13740,0;26,78
13743,8;26,79
13747,5;26,79
13751,3;26,80
13755,0;26,81
13758,8;26,82
13762,5;26,84
13766,3;26,85
13770,0;26,87
13773,8;26,89
13777,5;26,91
13781,3;26,93
13785,0;26,95
13788,8;26,96
13792,5;26,98
13796,3;27,00
13800,0;27,01
13803,8;27,02
13807,5;27,03
13811,3;27,03
13815,0;27,03
13818,8;27,04
13822,5;27,04
13826,3;27,04
13830,0;27,04
13833,8;27,04
13837,5;27,04
13841,3;27,04
13845,0;27,04
13848,8;27,04
13852,5;27,05
13856,3;27,05
13860,0;27,06
13863,8;27,06
13867,5;27,07
13871,3;27,08
13875,0;27,09
13878,8;27,10
13882,5;27,11
13886,3;27,12
13890,0;27,13
13893,8;27,13
13897,5;27,14
13901,3;27,14
13905,0;27,15
13908,8;27,15
13912,5;27,15
13916,3;27,16
13920,0;27,16
13923,8;27,16
13927,5;27,16
13931,3;27,16
13935,0;27,16
13938,8;27,17
13942,5;27,17
13946,3;27,18
13950,0;27,19
13953,8;27,19
13957,5;27,20
13961,3;27,22
13965,0;27,23
13968,8;27,24
13972,5;27,26
13976,3;27,27
13980,0;27,29
13983,8;27,30
13987,5;27,32
13991,3;27,34
13995,0;27,35
13998,8;27,37
14002,5;27,38
14006,3;27,39
14010,0;27,41
14013,8;27,42
14017,5;27,43
14021,3;27,44
14025,0;27,45
14028,8;27,46
14032,5;27,47
14036,3;27,48
14040,0;27,49
14043,8;27,50
14047,5;27,50
14051,3;27,51
14055,0;27,52
14058,8;27,53
14062,5;27,53
14066,3;27,54
14070,0;27,55
14073,8;27,55
14077,5;27,56
14081,3;27,56
14085,0;27,57
14088,8;27,57
14092,5;27,57
14096,3;27,57
14100,0;27,57
14103,8;27,57
14107,5;27,58
14111,3;27,58
14115,0;27,58
14118,8;27,58
14122,5;27,58
14126,3;27,59
14130,0;27,59
14133,8;27,60
14137,5;27,60
14141,3;27,61
14145,0;27,62
14148,8;27,63
14152,5;27,64
14156,3;27,65
14160,0;27,66
14163,8;27,68
14167,5;27,69
14171,3;27,70
14175,0;27,71
14178,8;27,71
14182,5;27,72
14186,3;27,73
14190,0;27,73
14193,8;27,74
14197,5;27,74
14201,3;27,74
14205,0;27,74
14208,8;27,74
14212,5;27,74
14216,3;27,74
14220,0;27,74
14223,8;27,73
14227,5;27,73
14231,3;27,73
14235,0;27,73
14238,8;27,73
14242,5;27,73
14246,3;27,73
14250,0;27,73
14253,8;27,72
14257,5;27,72
14261,3;27,72
14265,0;27,72
14268,8;27,72
14272,5;27,72
14276,3;27,71
14280,0;27,71
14283,8;27,70
14287,5;27,70
14291,3;27,69
14295,0;27,69
14298,8;27,68
14302,5;27,67
14306,3;27,67
14310,0;27,67
14313,8;27,67
14317,5;27,67
14321,3;27,67
14325,0;27,67
14328,8;27,68
14332,5;27,68
14336,3;27,69
14340,0;27,70
14343,8;27,72
14347,5;27,73
14351,3;27,75
14355,0;27,76
14358,8;27,77
14362,5;27,79
14366,3;27,80
14370,0;27,81
14373,8;27,82
14377,5;27,83
14381,3;27,83
14385,0;27,84
14388,8;27,84
14392,5;27,84
14396,3;27,84
14400,0;27,84
14403,8;27,84
14407,5;27,84
14411,3;27,83
14415,0;27,83
14418,8;27,83
14422,5;27,83
14426,3;27,83
14430,0;27,83
14433,8;27,83
14437,5;27,83
14441,3;27,84
14445,0;27,84
14448,8;27,85
14452,5;27,86
14456,3;27,86
14460,0;27,87
14463,8;27,88
14467,5;27,88
14471,3;27,89
14475,0;27,90
14478,8;27,90
14482,5;27,91
14486,3;27,91
14490,0;27,91
14493,8;27,92
14497,5;27,92
14501,3;27,92
14505,0;27,93
14508,8;27,94
14512,5;27,94
14516,3;27,95
14520,0;27,96
14523,8;27,97
14527,5;27,98
14531,3;27,99
14535,0;28,01
14538,8;28,02
14542,5;28,04
14546,3;28,05
14550,0;28,07
14553,8;28,08
14557,5;28,09
14561,3;28,10
14565,0;28,11
14568,8;28,11
14572,5;28,11
14576,3;28,10
14580,0;28,10
14583,8;28,09
14587,5;28,08
14591,3;28,07
14595,0;28,05
14598,8;28,03
14602,5;28,01
14606,3;28,00
14610,0;27,99
14613,8;27,98
14617,5;27,97
14621,3;27,96
14625,0;27,96
14628,8;27,96
14632,5;27,97
14636,3;27,98
14640,0;27,99
14643,8;28,01
14647,5;28,02
14651,3;28,04
14655,0;28,06
14658,8;28,08
14662,5;28,10
14666,3;28,12
14670,0;28,14
14673,8;28,16
14677,5;28,17
14681,3;28,18
14685,0;28,18
14688,8;28,19
14692,5;28,19
14696,3;28,19
14700,0;28,19
14703,8;28,18
14707,5;28,17
14711,3;28,17
14715,0;28,16
14718,8;28,16
14722,5;28,15
14726,3;28,15
14730,0;28,14
14733,8;28,14
14737,5;28,14
14741,3;28,15
14745,0;28,16
14748,8;28,17
14752,5;28,18
14756,3;28,19
14760,0;28,20
14763,8;28,21
14767,5;28,22
14771,3;28,24
14775,0;28,25
14778,8;28,26
14782,5;28,27
14786,3;28,28
14790,0;28,29
14793,8;28,29
14797,5;28,30
14801,3;28,30
14805,0;28,31
14808,8;28,31
14812,5;28,31
14816,3;28,30
14820,0;28,30
14823,8;28,31
14827,5;28,31
14831,3;28,31
14835,0;28,31
14838,8;28,31
14842,5;28,31
14846,3;28,31
14850,0;28,32
14853,8;28,33
14857,5;28,33
14861,3;28,34
14865,0;28,35
14868,8;28,36
14872,5;28,38
14876,3;28,39
14880,0;28,40
14883,8;28,42
14887,5;28,43
14891,3;28,44
14895,0;28,45
14898,8;28,46
14902,5;28,47
14906,3;28,47
14910,0;28,47
14913,8;28,47
14917,5;28,46
14921,3;28,44
14925,0;28,43
14928,8;28,40
14932,5;28,37
14936,3;28,34
14940,0;28,29
14943,8;28,24
14947,5;28,19
14951,3;28,13
14955,0;28,08
14958,8;28,02
14962,5;27,95
14966,3;27,89
14970,0;27,82
14973,8;27,76
14977,5;27,70
14981,3;27,63
14985,0;27,57
14988,8;27,50
14992,5;27,44
14996,3;27,39
15000,0;27,34
15003,8;27,30
15007,5;27,27
15011,3;27,24
15015,0;27,22
15018,8;27,21
15022,5;27,21
15026,3;27,23
15030,0;27,26
15033,8;27,30
15037,5;27,35
15041,3;27,40
15045,0;27,45
15048,8;27,51
15052,5;27,57
15056,3;27,64
15060,0;27,71
15063,8;27,78
15067,5;27,84
15071,3;27,89
15075,0;27,94
15078,8;27,99
15082,5;28,04
15086,3;28,08
15090,0;28,12
15093,8;28,16
15097,5;28,19
15101,3;28,21
15105,0;28,24
15108,8;28,26
15112,5;28,27
15116,3;28,29
15120,0;28,30
15123,8;28,31
15127,5;28,32
15131,3;28,33
15135,0;28,33
15138,8;28,34
15142,5;28,35
15146,3;28,35
15150,0;28,35
15153,8;28,36
15157,5;28,36
15161,3;28,37
15165,0;28,37
15168,8;28,37
15172,5;28,38
15176,3;28,38
15180,0;28,39
15183,8;28,39
15187,5;28,39
15191,3;28,39
15195,0;28,40
15198,8;28,40
15202,5;28,40
15206,3;28,40
15210,0;28,40
15213,8;28,39
15217,5;28,39
15221,3;28,39
15225,0;28,38
15228,8;28,38
15232,5;28,37
15236,3;28,37
15240,0;28,36
15243,8;28,35
15247,5;28,35
15251,3;28,35
15255,0;28,34
15258,8;28,34
15262,5;28,34
15266,3;28,35
15270,0;28,35
15273,8;28,36
15277,5;28,36
15281,3;28,38
15285,0;28,39
15288,8;28,40
15292,5;28,42
15296,3;28,43
15300,0;28,45
15303,8;28,46
15307,5;28,47
15311,3;28,49
15315,0;28,50
15318,8;28,51
15322,5;28,52
15326,3;28,52
15330,0;28,52
15333,8;28,52
15337,5;28,51
15341,3;28,51
15345,0;28,50
15348,8;28,49
15352,5;28,48
15356,3;28,46
15360,0;28,44
15363,8;28,43
15367,5;28,41
15371,3;28,40
15375,0;28,38
15378,8;28,36
15382,5;28,35
15386,3;28,33
15390,0;28,32
15393,8;28,31
15397,5;28,30
15401,3;28,29
15405,0;28,28
15408,8;28,27
15412,5;28,27
15416,3;28,26
15420,0;28,25
15423,8;28,24
15427,5;28,24
15431,3;28,23
15435,0;28,23
15438,8;28,22
15442,5;28,21
15446,3;28,20
15450,0;28,20
15453,8;28,19
15457,5;28,18
15461,3;28,18
15465,0;28,17
15468,8;28,17
15472,5;28,17
15476,3;28,17
15480,0;28,17
15483,8;28,17
15487,5;28,17
15491,3;28,18
15495,0;28,18
15498,8;28,19
15502,5;28,20
15506,3;28,21
15510,0;28,22
15513,8;28,23
15517,5;28,24
15521,3;28,24
15525,0;28,25
15528,8;28,25
15532,5;28,26
15536,3;28,26
15540,0;28,25
15543,8;28,25
15547,5;28,24
15551,3;28,23
15555,0;28,22
15558,8;28,20
15562,5;28,19
15566,3;28,17
15570,0;28,15
15573,8;28,13
15577,5;28,11
15581,3;28,09
15585,0;28,08
15588,8;28,06
15592,5;28,05
15596,3;28,04
15600,0;28,03
15603,8;28,02
15607,5;28,01
15611,3;28,01
15615,0;28,02
15618,8;28,02
15622,5;28,03
15626,3;28,04
15630,0;28,06
15633,8;28,07
15637,5;28,08
15641,3;28,10
15645,0;28,12
15648,8;28,14
15652,5;28,16
15656,3;28,17
15660,0;28,19
15663,8;28,20
15667,5;28,21
15671,3;28,23
15675,0;28,24
15678,8;28,25
15682,5;28,25
15686,3;28,26
15690,0;28,26
15693,8;28,26
15697,5;28,27
15701,3;28,27
15705,0;28,27
15708,8;28,27
15712,5;28,28
15716,3;28,28
15720,0;28,28
15723,8;28,29
15727,5;28,29
15731,3;28,30
15735,0;28,31
15738,8;28,31
15742,5;28,32
15746,3;28,33
15750,0;28,34
15753,8;28,35
15757,5;28,36
15761,3;28,37
15765,0;28,38
15768,8;28,38
15772,5;28,39
15776,3;28,39
15780,0;28,39
15783,8;28,39
15787,5;28,38
15791,3;28,37
15795,0;28,36
15798,8;28,35
15802,5;28,34
15806,3;28,32
15810,0;28,30
15813,8;28,28
15817,5;28,25
15821,3;28,23
15825,0;28,20
15828,8;28,17
15832,5;28,15
15836,3;28,12
15840,0;28,10
15843,8;28,07
15847,5;28,04
15851,3;28,02
15855,0;27,99
15858,8;27,96
15862,5;27,94
15866,3;27,92
15870,0;27,90
15873,8;27,87
15877,5;27,85
15881,3;27,82
15885,0;27,79
15888,8;27,77
15892,5;27,74
15896,3;27,71
15900,0;27,68
15903,8;27,64
15907,5;27,60
15911,3;27,56
15915,0;27,52
15918,8;27,47
15922,5;27,42
15926,3;27,37
15930,0;27,32
15933,8;27,27
15937,5;27,21
15941,3;27,15
15945,0;27,09
15948,8;27,03
15952,5;26,97
15956,3;26,92
15960,0;26,86
15963,8;26,80
15967,5;26,75
15971,3;26,69
15975,0;26,64
15978,8;26,59
15982,5;26,54
15986,3;26,49
15990,0;26,45
15993,8;26,40
15997,5;26,36
16001,3;26,31
16005,0;26,27
16008,8;26,23
16012,5;26,19
16016,3;26,15
16020,0;26,11
16023,8;26,07
16027,5;26,04
16031,3;26,00
16035,0;25,96
16038,8;25,93
16042,5;25,89
16046,3;25,86
16050,0;25,83
16053,8;25,80
16057,5;25,77
16061,3;25,74
16065,0;25,72
16068,8;25,70
16072,5;25,68
16076,3;25,67
16080,0;25,65
16083,8;25,64
16087,5;25,63
16091,3;25,63
16095,0;25,63
16098,8;25,63
16102,5;25,64
16106,3;25,64
16110,0;25,65
16113,8;25,65
16117,5;25,66
16121,3;25,67
16125,0;25,68
16128,8;25,69
16132,5;25,70
16136,3;25,71
16140,0;25,71
16143,8;25,72
16147,5;25,72
16151,3;25,72
16155,0;25,71
16158,8;25,71
16162,5;25,70
16166,3;25,70
16170,0;25,68
16173,8;25,67
16177,5;25,65
16181,3;25,64
16185,0;25,62
16188,8;25,61
16192,5;25,59
16196,3;25,57
16200,0;25,56
16203,8;25,54
16207,5;25,53
16211,3;25,51
16215,0;25,50
16218,8;25,49
16222,5;25,48
16226,3;25,48
16230,0;25,47
16233,8;25,47
16237,5;25,47
16241,3;25,47
16245,0;25,47
16248,8;25,47
16252,5;25,47
16256,3;25,48
16260,0;25,48
16263,8;25,49
16267,5;25,49
16271,3;25,49
16275,0;25,49
16278,8;25,49
16282,5;25,49
16286,3;25,49
16290,0;25,49
16293,8;25,49
16297,5;25,49
16301,3;25,48
16305,0;25,47
16308,8;25,47
16312,5;25,46
16316,3;25,45
16320,0;25,45
16323,8;25,44
16327,5;25,43
16331,3;25,43
16335,0;25,42
16338,8;25,42
16342,5;25,41
16346,3;25,41
16350,0;25,41
16353,8;25,41
16357,5;25,41
16361,3;25,42
16365,0;25,42
16368,8;25,43
16372,5;25,43
16376,3;25,44
16380,0;25,45
16383,8;25,45
16387,5;25,46
16391,3;25,47
16395,0;25,48
16398,8;25,49
16402,5;25,50
16406,3;25,50
16410,0;25,51
16413,8;25,51
16417,5;25,52
16421,3;25,52
16425,0;25,52
16428,8;25,53
16432,5;25,53
16436,3;25,53
16440,0;25,53
16443,8;25,53
16447,5;25,53
16451,3;25,53
16455,0;25,53
16458,8;25,53
16462,5;25,54
16466,3;25,54
16470,0;25,54
16473,8;25,55
16477,5;25,56
16481,3;25,56
16485,0;25,58
16488,8;25,59
16492,5;25,60
16496,3;25,62
16500,0;25,64
16503,8;25,66
16507,5;25,68
16511,3;25,70
16515,0;25,72
16518,8;25,74
16522,5;25,77
16526,3;25,79
16530,0;25,82
16533,8;25,84
16537,5;25,87
16541,3;25,89
16545,0;25,92
16548,8;25,94
16552,5;25,97
16556,3;25,99
16560,0;26,02
16563,8;26,04
16567,5;26,06
16571,3;26,09
16575,0;26,11
16578,8;26,14
16582,5;26,16
16586,3;26,18
16590,0;26,21
16593,8;26,24
16597,5;26,26
16601,3;26,29
16605,0;26,32
16608,8;26,35
16612,5;26,38
16616,3;26,42
16620,0;26,45
16623,8;26,48
16627,5;26,52
16631,3;26,55
16635,0;26,59
16638,8;26,63
16642,5;26,66
16646,3;26,69
16650,0;26,73
16653,8;26,76
16657,5;26,79
16661,3;26,82
16665,0;26,85
16668,8;26,87
16672,5;26,90
16676,3;26,92
16680,0;26,94
16683,8;26,95
16687,5;26,96
16691,3;26,98
16695,0;26,99
16698,8;26,99
16702,5;27,00
16706,3;27,01
16710,0;27,02
16713,8;27,02
16717,5;27,02
16721,3;27,03
16725,0;27,03
16728,8;27,04
16732,5;27,05
16736,3;27,05
16740,0;27,07
16743,8;27,08
16747,5;27,09
16751,3;27,10
16755,0;27,12
16758,8;27,14
16762,5;27,16
16766,3;27,18
16770,0;27,20
16773,8;27,23
16777,5;27,25
16781,3;27,28
16785,0;27,31
16788,8;27,33
16792,5;27,35
16796,3;27,37
16800,0;27,40
16803,8;27,42
16807,5;27,44
16811,3;27,46
16815,0;27,47
16818,8;27,48
16822,5;27,49
16826,3;27,50
16830,0;27,51
16833,8;27,51
16837,5;27,51
16841,3;27,52
16845,0;27,52
16848,8;27,52
16852,5;27,52
16856,3;27,52
16860,0;27,52
16863,8;27,52
16867,5;27,52
16871,3;27,52
16875,0;27,53
16878,8;27,53
16882,5;27,54
16886,3;27,55
16890,0;27,56
16893,8;27,58
16897,5;27,59
16901,3;27,61
16905,0;27,63
16908,8;27,65
16912,5;27,67
16916,3;27,70
16920,0;27,72
16923,8;27,75
16927,5;27,77
16931,3;27,80
16935,0;27,82
16938,8;27,84
16942,5;27,86
16946,3;27,88
16950,0;27,90
16953,8;27,92
16957,5;27,94
16961,3;27,95
16965,0;27,96
16968,8;27,97
16972,5;27,98
16976,3;27,98
16980,0;27,99
16983,8;27,99
16987,5;28,00
16991,3;28,00
16995,0;28,01
16998,8;28,01
17002,5;28,01
17006,3;28,01
17010,0;28,02
17013,8;28,02
17017,5;28,03
17021,3;28,04
17025,0;28,04
17028,8;28,05
17032,5;28,07
17036,3;28,08
17040,0;28,09
17043,8;28,10
17047,5;28,11
17051,3;28,13
17055,0;28,14
17058,8;28,16
17062,5;28,17
17066,3;28,19
17070,0;28,20
17073,8;28,21
17077,5;28,22
17081,3;28,23
17085,0;28,24
17088,8;28,25
17092,5;28,26
17096,3;28,26
17100,0;28,27
17103,8;28,27
17107,5;28,27
17111,3;28,28
17115,0;28,28
17118,8;28,28
17122,5;28,27
17126,3;28,27
17130,0;28,27
17133,8;28,28
17137,5;28,28
17141,3;28,28
17145,0;28,28
17148,8;28,29
17152,5;28,29
17156,3;28,29
17160,0;28,30
17163,8;28,31
17167,5;28,31
17171,3;28,32
17175,0;28,33
17178,8;28,34
17182,5;28,35
17186,3;28,36
17190,0;28,37
17193,8;28,38
17197,5;28,38
17201,3;28,39
17205,0;28,40
17208,8;28,40
17212,5;28,40
17216,3;28,41
17220,0;28,41
17223,8;28,41
17227,5;28,40
17231,3;28,40
17235,0;28,39
17238,8;28,38
17242,5;28,38
17246,3;28,37
17250,0;28,36
17253,8;28,35
17257,5;28,35
17261,3;28,34
17265,0;28,33
17268,8;28,32
17272,5;28,31
17276,3;28,31
17280,0;28,31
17283,8;28,31
17287,5;28,31
17291,3;28,31
17295,0;28,32
17298,8;28,32
17302,5;28,33
17306,3;28,34
17310,0;28,35
17313,8;28,37
17317,5;28,38
17321,3;28,40
17325,0;28,41
17328,8;28,43
17332,5;28,45
17336,3;28,47
17340,0;28,48
17343,8;28,50
17347,5;28,51
17351,3;28,52
17355,0;28,53
17358,8;28,54
17362,5;28,55
17366,3;28,56
17370,0;28,57
17373,8;28,57
17377,5;28,57
17381,3;28,57
17385,0;28,56
17388,8;28,56
17392,5;28,55
17396,3;28,55
17400,0;28,54
17403,8;28,53
17407,5;28,53
17411,3;28,52
17415,0;28,51
17418,8;28,50
17422,5;28,50
17426,3;28,49
17430,0;28,48
17433,8;28,48
17437,5;28,48
17441,3;28,48
17445,0;28,48
17448,8;28,48
17452,5;28,49
17456,3;28,49
17460,0;28,49
17463,8;28,50
17467,5;28,51
17471,3;28,51
17475,0;28,52
17478,8;28,53
17482,5;28,54
17486,3;28,55
17490,0;28,55
17493,8;28,55
17497,5;28,56
17501,3;28,56
17505,0;28,56
17508,8;28,56
17512,5;28,56
17516,3;28,55
17520,0;28,55
17523,8;28,54
17527,5;28,53
17531,3;28,52
17535,0;28,51
17538,8;28,49
17542,5;28,48
17546,3;28,46
17550,0;28,45
17553,8;28,44
17557,5;28,42
17561,3;28,41
17565,0;28,39
17568,8;28,38
17572,5;28,37
17576,3;28,35
17580,0;28,34
17583,8;28,34
17587,5;28,33
17591,3;28,33
17595,0;28,33
17598,8;28,33
17602,5;28,33
17606,3;28,33
17610,0;28,33
17613,8;28,34
17617,5;28,34
17621,3;28,35
17625,0;28,36
17628,8;28,37
17632,5;28,38
17636,3;28,39
17640,0;28,40
17643,8;28,41
17647,5;28,41
17651,3;28,42
17655,0;28,42
17658,8;28,43
17662,5;28,43
17666,3;28,43
17670,0;28,43
17673,8;28,43
17677,5;28,43
17681,3;28,43
17685,0;28,43
17688,8;28,42
17692,5;28,41
17696,3;28,40
17700,0;28,39
17703,8;28,39
17707,5;28,38
17711,3;28,37
17715,0;28,37
17718,8;28,36
17722,5;28,35
17726,3;28,35
17730,0;28,34
17733,8;28,34
17737,5;28,34
17741,3;28,34
17745,0;28,34
17748,8;28,35
17752,5;28,35
17756,3;28,36
17760,0;28,37
17763,8;28,38
17767,5;28,39
17771,3;28,40
17775,0;28,41
17778,8;28,42
17782,5;28,44
17786,3;28,45
17790,0;28,47
17793,8;28,49
17797,5;28,50
17801,3;28,52
17805,0;28,53
17808,8;28,54
17812,5;28,55
17816,3;28,56
17820,0;28,57
17823,8;28,58
17827,5;28,59
17831,3;28,60
17835,0;28,61
17838,8;28,62
17842,5;28,63
17846,3;28,64
17850,0;28,64
17853,8;28,65
17857,5;28,66
17861,3;28,67
17865,0;28,67
17868,8;28,69
17872,5;28,70
17876,3;28,71
17880,0;28,73
17883,8;28,74
17887,5;28,76
17891,3;28,77
17895,0;28,79
17898,8;28,81
17902,5;28,83
17906,3;28,85
17910,0;28,87
17913,8;28,89
17917,5;28,92
17921,3;28,94
17925,0;28,96
17928,8;28,98
17932,5;29,00
17936,3;29,01
17940,0;29,03
17943,8;29,04
17947,5;29,06
17951,3;29,07
17955,0;29,08
17958,8;29,09
17962,5;29,10
17966,3;29,10
17970,0;29,10
17973,8;29,09
17977,5;29,09
17981,3;29,08
17985,0;29,07
17988,8;29,06
17992,5;29,05
17996,3;29,04
18000,0;29,03
18003,8;29,01
18007,5;29,00
18011,3;28,98
18015,0;28,97
18018,8;28,95
18022,5;28,94
18026,3;28,92
18030,0;28,91
18033,8;28,90
18037,5;28,90
18041,3;28,89
18045,0;28,89
18048,8;28,88
18052,5;28,88
18056,3;28,88
18060,0;28,88
18063,8;28,88
18067,5;28,89
18071,3;28,89
18075,0;28,90
18078,8;28,91
18082,5;28,92
18086,3;28,93
18090,0;28,94
18093,8;28,95
18097,5;28,95
18101,3;28,96
18105,0;28,96
18108,8;28,97
18112,5;28,97
18116,3;28,98
18120,0;28,98
18123,8;28,98
18127,5;28,98
18131,3;28,98
18135,0;28,97
18138,8;28,97
18142,5;28,96
18146,3;28,95
18150,0;28,94
18153,8;28,93
18157,5;28,93
18161,3;28,92
18165,0;28,91
18168,8;28,90
18172,5;28,89
18176,3;28,88
18180,0;28,87
18183,8;28,87
18187,5;28,86
18191,3;28,86
18195,0;28,86
18198,8;28,86
18202,5;28,86
18206,3;28,86
18210,0;28,87
18213,8;28,88
18217,5;28,88
18221,3;28,89
18225,0;28,90
18228,8;28,91
18232,5;28,92
18236,3;28,93
18240,0;28,95
18243,8;28,96
18247,5;28,98
18251,3;28,99
18255,0;29,00
18258,8;29,01
18262,5;29,02
18266,3;29,03
18270,0;29,04
18273,8;29,04
18277,5;29,05
18281,3;29,05
18285,0;29,06
18288,8;29,06
18292,5;29,06
18296,3;29,06
18300,0;29,05
18303,8;29,05
18307,5;29,04
18311,3;29,03
18315,0;29,02
18318,8;29,02
18322,5;29,01
18326,3;29,00
18330,0;29,00
18333,8;28,99
18337,5;28,99
18341,3;28,98
18345,0;28,98
18348,8;28,97
18352,5;28,97
18356,3;28,97
18360,0;28,97
18363,8;28,97
18367,5;28,97
18371,3;28,98
18375,0;28,99
18378,8;28,99
18382,5;29,00
18386,3;29,01
18390,0;29,02
18393,8;29,03
18397,5;29,03
18401,3;29,04
18405,0;29,05
18408,8;29,06
18412,5;29,07
18416,3;29,07
18420,0;29,08
18423,8;29,09
18427,5;29,09
18431,3;29,09
18435,0;29,09
18438,8;29,08
18442,5;29,08
18446,3;29,07
18450,0;29,06
18453,8;29,06
18457,5;29,05
18461,3;29,04
18465,0;29,03
18468,8;29,02
18472,5;29,00
18476,3;28,99
18480,0;28,98
18483,8;28,96
18487,5;28,95
18491,3;28,94
18495,0;28,94
18498,8;28,93
18502,5;28,93
18506,3;28,93
18510,0;28,92
18513,8;28,92
18517,5;28,93
18521,3;28,93
18525,0;28,94
18528,8;28,95
18532,5;28,96
18536,3;28,97
18540,0;28,99
18543,8;29,01
18547,5;29,03
18551,3;29,05
18555,0;29,07
18558,8;29,09
18562,5;29,10
18566,3;29,12
18570,0;29,14
18573,8;29,16
18577,5;29,17
18581,3;29,19
18585,0;29,21
18588,8;29,22
18592,5;29,23
18596,3;29,24
18600,0;29,24
18603,8;29,24
18607,5;29,24
18611,3;29,23
18615,0;29,23
18618,8;29,22
18622,5;29,21
18626,3;29,20
18630,0;29,18
18633,8;29,17
18637,5;29,16
18641,3;29,14
18645,0;29,12
18648,8;29,10
18652,5;29,08
18656,3;29,05
18660,0;29,04
18663,8;29,02
18667,5;29,00
18671,3;28,99
18675,0;28,98
18678,8;28,97
18682,5;28,97
18686,3;28,96
18690,0;28,96
18693,8;28,95
18697,5;28,95
18701,3;28,96
18705,0;28,96
18708,8;28,97
18712,5;28,98
18716,3;29,00
18720,0;29,01
18723,8;29,03
18727,5;29,04
18731,3;29,06
18735,0;29,08
18738,8;29,09
18742,5;29,11
18746,3;29,12
18750,0;29,14
18753,8;29,16
18757,5;29,17
18761,3;29,19
18765,0;29,20
18768,8;29,21
18772,5;29,22
18776,3;29,23
18780,0;29,23
18783,8;29,23
18787,5;29,23
18791,3;29,23
18795,0;29,23
18798,8;29,23
18802,5;29,23
18806,3;29,23
18810,0;29,22
18813,8;29,22
18817,5;29,21
18821,3;29,21
18825,0;29,20
18828,8;29,19
18832,5;29,19
18836,3;29,18
18840,0;29,18
18843,8;29,18
18847,5;29,18
18851,3;29,18
18855,0;29,18
18858,8;29,19
18862,5;29,19
18866,3;29,20
18870,0;29,20
18873,8;29,21
18877,5;29,22
18881,3;29,23
18885,0;29,23
18888,8;29,25
18892,5;29,26
18896,3;29,27
18900,0;29,28
18903,8;29,30
18907,5;29,31
18911,3;29,32
18915,0;29,32
18918,8;29,33
18922,5;29,34
18926,3;29,34
18930,0;29,34
18933,8;29,35
18937,5;29,35
18941,3;29,35
18945,0;29,35
18948,8;29,35
18952,5;29,34
18956,3;29,34
18960,0;29,33
18963,8;29,32
18967,5;29,31
18971,3;29,30
18975,0;29,29
18978,8;29,28
18982,5;29,27
18986,3;29,26
18990,0;29,26
18993,8;29,25
18997,5;29,24
19001,3;29,24
19005,0;29,23
19008,8;29,23
19012,5;29,23
19016,3;29,23
19020,0;29,23
19023,8;29,24
19027,5;29,24
19031,3;29,25
19035,0;29,27
19038,8;29,28
19042,5;29,29
19046,3;29,31
19050,0;29,33
19053,8;29,35
19057,5;29,36
19061,3;29,38
19065,0;29,40
19068,8;29,42
19072,5;29,45
19076,3;29,47
19080,0;29,49
19083,8;29,51
19087,5;29,53
19091,3;29,55
19095,0;29,57
19098,8;29,58
19102,5;29,59
19106,3;29,61
19110,0;29,62
19113,8;29,62
19117,5;29,63
19121,3;29,64
19125,0;29,64
19128,8;29,64
19132,5;29,64
19136,3;29,64
19140,0;29,64
19143,8;29,63
19147,5;29,62
19151,3;29,61
19155,0;29,60
19158,8;29,59
19162,5;29,59
19166,3;29,58
19170,0;29,57
19173,8;29,57
19177,5;29,56
19181,3;29,56
19185,0;29,55
19188,8;29,55
19192,5;29,54
19196,3;29,54
19200,0;29,54
19203,8;29,55
19207,5;29,55
19211,3;29,56
19215,0;29,57
19218,8;29,58
19222,5;29,59
19226,3;29,61
19230,0;29,62
19233,8;29,64
19237,5;29,66
19241,3;29,67
19245,0;29,69
19248,8;29,71
19252,5;29,73
19256,3;29,75
19260,0;29,77
19263,8;29,79
19267,5;29,81
19271,3;29,82
19275,0;29,84
19278,8;29,85
19282,5;29,86
19286,3;29,87
19290,0;29,88
19293,8;29,88
19297,5;29,89
19301,3;29,89
19305,0;29,89
19308,8;29,89
19312,5;29,88
19316,3;29,88
19320,0;29,87
19323,8;29,87
19327,5;29,86
19331,3;29,84
19335,0;29,83
19338,8;29,81
19342,5;29,80
19346,3;29,79
19350,0;29,77
19353,8;29,76
19357,5;29,75
19361,3;29,74
19365,0;29,73
19368,8;29,72
19372,5;29,72
19376,3;29,71
19380,0;29,70
19383,8;29,70
19387,5;29,70
19391,3;29,69
19395,0;29,70
19398,8;29,70
19402,5;29,71
19406,3;29,71
19410,0;29,72
19413,8;29,73
19417,5;29,74
19421,3;29,75
19425,0;29,76
19428,8;29,77
19432,5;29,78
19436,3;29,79
19440,0;29,80
19443,8;29,81
19447,5;29,82
19451,3;29,83
19455,0;29,83
19458,8;29,84
19462,5;29,84
19466,3;29,84
19470,0;29,84
19473,8;29,84
19477,5;29,83
19481,3;29,83
19485,0;29,82
19488,8;29,81
19492,5;29,80
19496,3;29,79
19500,0;29,78
19503,8;29,76
19507,5;29,75
19511,3;29,74
19515,0;29,73
19518,8;29,71
19522,5;29,70
19526,3;29,68
19530,0;29,67
19533,8;29,66
19537,5;29,65
19541,3;29,64
19545,0;29,64
19548,8;29,64
19552,5;29,64
19556,3;29,64
19560,0;29,64
19563,8;29,65
19567,5;29,66
19571,3;29,67
19575,0;29,68
19578,8;29,69
19582,5;29,71
19586,3;29,72
19590,0;29,74
19593,8;29,76
19597,5;29,79
19601,3;29,81
19605,0;29,84
19608,8;29,86
19612,5;29,89
19616,3;29,91
19620,0;29,93
19623,8;29,94
19627,5;29,96
19631,3;29,97
19635,0;29,99
19638,8;30,00
19642,5;30,01
19646,3;30,02
19650,0;30,03
19653,8;30,04
19657,5;30,04
19661,3;30,04
19665,0;30,03
19668,8;30,02
19672,5;30,01
19676,3;30,00
19680,0;29,98
19683,8;29,97
19687,5;29,95
19691,3;29,93
19695,0;29,92
19698,8;29,90
19702,5;29,89
19706,3;29,87
19710,0;29,85
19713,8;29,83
19717,5;29,81
19721,3;29,79
19725,0;29,78
19728,8;29,76
19732,5;29,75
19736,3;29,74
19740,0;29,74
19743,8;29,74
19747,5;29,74
19751,3;29,74
19755,0;29,74
19758,8;29,75
19762,5;29,75
19766,3;29,76
19770,0;29,77
19773,8;29,78
19777,5;29,79
19781,3;29,81
19785,0;29,82
19788,8;29,84
19792,5;29,86
19796,3;29,88
19800,0;29,90
19803,8;29,92
19807,5;29,94
19811,3;29,96
19815,0;29,98
19818,8;29,99
19822,5;30,00
19826,3;30,02
19830,0;30,03
19833,8;30,04
19837,5;30,05
19841,3;30,06
19845,0;30,07
19848,8;30,08
19852,5;30,09
19856,3;30,09
19860,0;30,09
19863,8;30,10
19867,5;30,10
19871,3;30,10
19875,0;30,10
19878,8;30,09
19882,5;30,09
19886,3;30,09
19890,0;30,10
19893,8;30,10
19897,5;30,11
19901,3;30,11
19905,0;30,12
19908,8;30,13
19912,5;30,13
19916,3;30,14
19920,0;30,15
19923,8;30,17
19927,5;30,18
19931,3;30,20
19935,0;30,21
19938,8;30,24
19942,5;30,26
19946,3;30,29
19950,0;30,31
19953,8;30,34
19957,5;30,37
19961,3;30,41
19965,0;30,44
19968,8;30,47
19972,5;30,50
19976,3;30,53
19980,0;30,56
19983,8;30,60
19987,5;30,63
19991,3;30,66
19995,0;30,70
19998,8;30,73
20002,5;30,76
20006,3;30,79
20010,0;30,82
20013,8;30,85
20017,5;30,87
20021,3;30,89
20025,0;30,91
20028,8;30,93
20032,5;30,95
20036,3;30,96
20040,0;30,97
20043,8;30,98
20047,5;30,99
20051,3;31,00
20055,0;31,01
20058,8;31,01
20062,5;31,01
20066,3;31,00
20070,0;31,00
20073,8;30,99
20077,5;30,98
20081,3;30,98
20085,0;30,97
20088,8;30,96
20092,5;30,95
20096,3;30,94
20100,0;30,93
20103,8;30,92
20107,5;30,91
20111,3;30,90
20115,0;30,88
20118,8;30,87
20122,5;30,86
20126,3;30,85
20130,0;30,84
20133,8;30,84
20137,5;30,83
20141,3;30,83
20145,0;30,83
20148,8;30,83
20152,5;30,83
20156,3;30,83
20160,0;30,83
20163,8;30,84
20167,5;30,85
20171,3;30,85
20175,0;30,86
20178,8;30,87
20182,5;30,89
20186,3;30,91
20190,0;30,92
20193,8;30,94
20197,5;30,96
20201,3;30,98
20205,0;31,01
20208,8;31,03
20212,5;31,05
20216,3;31,06
20220,0;31,08
20223,8;31,10
20227,5;31,12
20231,3;31,15
20235,0;31,17
20238,8;31,19
20242,5;31,20
20246,3;31,22
20250,0;31,23
20253,8;31,24
20257,5;31,25
20261,3;31,26
20265,0;31,26
20268,8;31,26
20272,5;31,26
20276,3;31,26
20280,0;31,25
20283,8;31,24
20287,5;31,23
20291,3;31,22
20295,0;31,20
20298,8;31,19
20302,5;31,17
20306,3;31,14
20310,0;31,11
20313,8;31,08
20317,5;31,05
20321,3;31,02
20325,0;30,98
20328,8;30,95
20332,5;30,91
20336,3;30,87
20340,0;30,84
20343,8;30,80
20347,5;30,76
20351,3;30,72
20355,0;30,68
20358,8;30,64
20362,5;30,60
20366,3;30,56
20370,0;30,52
20373,8;30,48
20377,5;30,45
20381,3;30,42
20385,0;30,39
20388,8;30,36
20392,5;30,33
20396,3;30,30
20400,0;30,27
20403,8;30,25
20407,5;30,23
20411,3;30,21
20415,0;30,19
20418,8;30,17
20422,5;30,16
20426,3;30,14
20430,0;30,13
20433,8;30,12
20437,5;30,12
20441,3;30,11
20445,0;30,11
20448,8;30,11
20452,5;30,11
20456,3;30,11
20460,0;30,11
20463,8;30,11
20467,5;30,11
20471,3;30,11
20475,0;30,12
20478,8;30,12
20482,5;30,13
20486,3;30,14
20490,0;30,15
20493,8;30,15
20497,5;30,16
20501,3;30,17
20505,0;30,18
20508,8;30,18
20512,5;30,19
20516,3;30,20
20520,0;30,20
20523,8;30,21
20527,5;30,22
20531,3;30,23
20535,0;30,23
20538,8;30,24
20542,5;30,25
20546,3;30,25
20550,0;30,26
20553,8;30,27
20557,5;30,27
20561,3;30,28
20565,0;30,28
20568,8;30,29
20572,5;30,29
20576,3;30,30
20580,0;30,30
20583,8;30,30
20587,5;30,31
20591,3;30,31
20595,0;30,31
20598,8;30,31
20602,5;30,31
20606,3;30,31
20610,0;30,31
20613,8;30,30
20617,5;30,30
20621,3;30,30
20625,0;30,29
20628,8;30,29
20632,5;30,28
20636,3;30,28
20640,0;30,27
20643,8;30,26
20647,5;30,25
20651,3;30,24
20655,0;30,22
20658,8;30,21
20662,5;30,20
20666,3;30,19
20670,0;30,18
20673,8;30,17
20677,5;30,17
20681,3;30,16
20685,0;30,15
20688,8;30,14
20692,5;30,13
20696,3;30,12
20700,0;30,12
20703,8;30,11
20707,5;30,11
20711,3;30,11
20715,0;30,11
20718,8;30,12
20722,5;30,12
20726,3;30,13
20730,0;30,15
20733,8;30,16
20737,5;30,18
20741,3;30,19
20745,0;30,21
20748,8;30,23
20752,5;30,25
20756,3;30,28
20760,0;30,30
20763,8;30,32
20767,5;30,35
20771,3;30,38
20775,0;30,42
20778,8;30,45
20782,5;30,49
20786,3;30,52
20790,0;30,56
20793,8;30,59
20797,5;30,63
20801,3;30,66
20805,0;30,68
20808,8;30,71
20812,5;30,74
20816,3;30,77
20820,0;30,79
20823,8;30,82
20827,5;30,84
20831,3;30,86
20835,0;30,88
20838,8;30,90
20842,5;30,92
20846,3;30,93
20850,0;30,94
20853,8;30,95
20857,5;30,95
20861,3;30,95
20865,0;30,95
20868,8;30,95
20872,5;30,94
20876,3;30,94
20880,0;30,93
20883,8;30,93
20887,5;30,92
20891,3;30,91
20895,0;30,91
20898,8;30,90
20902,5;30,89
20906,3;30,88
20910,0;30,87
20913,8;30,86
20917,5;30,85
20921,3;30,84
20925,0;30,83
20928,8;30,82
20932,5;30,82
20936,3;30,82
20940,0;30,82
20943,8;30,82
20947,5;30,82
20951,3;30,82
20955,0;30,83
20958,8;30,83
20962,5;30,84
20966,3;30,85
20970,0;30,86
20973,8;30,86
20977,5;30,87
20981,3;30,88
20985,0;30,89
20988,8;30,90
20992,5;30,91
20996,3;30,93
21000,0;30,94
21003,8;30,95
21007,5;30,97
21011,3;30,98
21015,0;30,99
21018,8;30,99
21022,5;31,00
21026,3;31,00
21030,0;31,00
21033,8;31,00
21037,5;31,00
21041,3;31,00
21045,0;30,99
21048,8;30,99
21052,5;30,98
21056,3;30,97
21060,0;30,96
21063,8;30,95
21067,5;30,94
21071,3;30,93
21075,0;30,92
21078,8;30,90
21082,5;30,88
21086,3;30,86
21090,0;30,84
21093,8;30,82
21097,5;30,80
21101,3;30,78
21105,0;30,76
21108,8;30,75
21112,5;30,73
21116,3;30,72
21120,0;30,71
21123,8;30,70
21127,5;30,69
21131,3;30,69
21135,0;30,68
21138,8;30,68
21142,5;30,67
21146,3;30,67
21150,0;30,67
21153,8;30,68
21157,5;30,68
21161,3;30,69
21165,0;30,71
21168,8;30,73
21172,5;30,74
21176,3;30,77
21180,0;30,79
21183,8;30,81
21187,5;30,84
21191,3;30,86
21195,0;30,88
21198,8;30,91
21202,5;30,93
21206,3;30,95
21210,0;30,98
21213,8;31,01
21217,5;31,03
21221,3;31,06
21225,0;31,09
21228,8;31,11
21232,5;31,14
21236,3;31,16
21240,0;31,18
21243,8;31,20
21247,5;31,22
21251,3;31,23
21255,0;31,24
21258,8;31,25
21262,5;31,26
21266,3;31,26
21270,0;31,27
21273,8;31,27
21277,5;31,27
21281,3;31,27
21285,0;31,27
21288,8;31,27
21292,5;31,26
21296,3;31,26
21300,0;31,25
21303,8;31,24
21307,5;31,23
21311,3;31,22
21315,0;31,20
21318,8;31,19
21322,5;31,18
21326,3;31,16
21330,0;31,15
21333,8;31,14
21337,5;31,13
21341,3;31,13
21345,0;31,12
21348,8;31,11
21352,5;31,11
21356,3;31,10
21360,0;31,09
21363,8;31,09
21367,5;31,09
21371,3;31,08
21375,0;31,08
21378,8;31,08
21382,5;31,09
21386,3;31,09
21390,0;31,10
21393,8;31,11
21397,5;31,12
21401,3;31,13
21405,0;31,14
21408,8;31,16
21412,5;31,17
21416,3;31,18
21420,0;31,20
21423,8;31,21
21427,5;31,22
21431,3;31,23
21435,0;31,25
21438,8;31,26
21442,5;31,28
21446,3;31,29
21450,0;31,30
21453,8;31,32
21457,5;31,33
21461,3;31,34
21465,0;31,35
21468,8;31,36
21472,5;31,37
21476,3;31,38
21480,0;31,38
21483,8;31,38
21487,5;31,38
21491,3;31,39
21495,0;31,38
21498,8;31,38
21502,5;31,38
21506,3;31,38
21510,0;31,37
21513,8;31,37
21517,5;31,36
21521,3;31,36
21525,0;31,35
21528,8;31,34
21532,5;31,34
21536,3;31,33
21540,0;31,32
21543,8;31,30
21547,5;31,29
21551,3;31,28
21555,0;31,27
21558,8;31,26
21562,5;31,26
21566,3;31,25
21570,0;31,25
21573,8;31,24
21577,5;31,24
21581,3;31,24
21585,0;31,23
21588,8;31,23
21592,5;31,23
21596,3;31,23
21600,0;31,23
21603,8;31,24
21607,5;31,24
21611,3;31,24
21615,0;31,25
21618,8;31,26
21622,5;31,27
21626,3;31,28
21630,0;31,29
21633,8;31,30
21637,5;31,31
21641,3;31,33
21645,0;31,34
21648,8;31,35
21652,5;31,37
21656,3;31,38
21660,0;31,39
21663,8;31,40
21667,5;31,41
21671,3;31,42
21675,0;31,42
21678,8;31,43
21682,5;31,44
21686,3;31,45
21690,0;31,46
21693,8;31,46
21697,5;31,47
21701,3;31,47
21705,0;31,47
21708,8;31,47
21712,5;31,46
21716,3;31,45
21720,0;31,44
21723,8;31,43
21727,5;31,42
21731,3;31,41
21735,0;31,39
21738,8;31,38
21742,5;31,36
21746,3;31,35
21750,0;31,33
21753,8;31,31
21757,5;31,30
21761,3;31,28
21765,0;31,26
21768,8;31,24
21772,5;31,22
21776,3;31,19
21780,0;31,17
21783,8;31,15
21787,5;31,13
21791,3;31,11
21795,0;31,09
21798,8;31,08
21802,5;31,07
21806,3;31,06
21810,0;31,05
21813,8;31,04
21817,5;31,04
21821,3;31,03
21825,0;31,03
21828,8;31,03
21832,5;31,03
21836,3;31,03
21840,0;31,04
21843,8;31,04
21847,5;31,05
21851,3;31,06
21855,0;31,08
21858,8;31,09
21862,5;31,11
21866,3;31,14
21870,0;31,16
21873,8;31,19
21877,5;31,21
21881,3;31,24
21885,0;31,26
21888,8;31,29
21892,5;31,32
21896,3;31,34
21900,0;31,36
21903,8;31,39
21907,5;31,41
21911,3;31,44
21915,0;31,46
21918,8;31,49
21922,5;31,51
21926,3;31,54
21930,0;31,56
21933,8;31,58
21937,5;31,60
21941,3;31,62
21945,0;31,64
21948,8;31,66
21952,5;31,67
21956,3;31,68
21960,0;31,69
21963,8;31,70
21967,5;31,70
21971,3;31,71
21975,0;31,72
21978,8;31,72
21982,5;31,73
21986,3;31,73
21990,0;31,74
21993,8;31,75
21997,5;31,75
22001,3;31,76
22005,0;31,76
22008,8;31,76
22012,5;31,77
22016,3;31,77
22020,0;31,78
22023,8;31,78
22027,5;31,79
22031,3;31,79
22035,0;31,80
22038,8;31,81
22042,5;31,82
22046,3;31,83
22050,0;31,85
22053,8;31,87
22057,5;31,89
22061,3;31,91
22065,0;31,93
22068,8;31,95
22072,5;31,97
22076,3;31,99
22080,0;32,02
22083,8;32,04
22087,5;32,06
22091,3;32,08
22095,0;32,10
22098,8;32,13
22102,5;32,15
22106,3;32,18
22110,0;32,20
22113,8;32,23
22117,5;32,25
22121,3;32,28
22125,0;32,30
22128,8;32,32
22132,5;32,33
22136,3;32,35
22140,0;32,36
22143,8;32,36
22147,5;32,37
22151,3;32,37
22155,0;32,37
22158,8;32,37
22162,5;32,37
22166,3;32,36
22170,0;32,35
22173,8;32,34
22177,5;32,33
22181,3;32,31
22185,0;32,29
22188,8;32,27
22192,5;32,25
22196,3;32,22
22200,0;32,19
22203,8;32,16
22207,5;32,12
22211,3;32,08
22215,0;32,04
22218,8;32,00
22222,5;31,96
22226,3;31,92
22230,0;31,88
22233,8;31,84
22237,5;31,80
22241,3;31,76
22245,0;31,73
22248,8;31,69
22252,5;31,65
22256,3;31,61
22260,0;31,57
22263,8;31,53
22267,5;31,49
22271,3;31,45
22275,0;31,42
22278,8;31,39
22282,5;31,36
22286,3;31,33
22290,0;31,31
22293,8;31,29
22297,5;31,27
22301,3;31,25
22305,0;31,24
22308,8;31,22
22312,5;31,21
22316,3;31,20
22320,0;31,20
22323,8;31,19
22327,5;31,18
22331,3;31,18
22335,0;31,18
22338,8;31,17
22342,5;31,17
22346,3;31,17
22350,0;31,18
22353,8;31,18
22357,5;31,19
22361,3;31,20
22365,0;31,20
22368,8;31,21
22372,5;31,22
22376,3;31,23
22380,0;31,23
22383,8;31,24
22387,5;31,25
22391,3;31,25
22395,0;31,25
22398,8;31,26
22402,5;31,26
22406,3;31,26
22410,0;31,26
22413,8;31,27
22417,5;31,27
22421,3;31,27
22425,0;31,27
22428,8;31,28
22432,5;31,28
22436,3;31,28
22440,0;31,28
22443,8;31,29
22447,5;31,29
22451,3;31,29
22455,0;31,29
22458,8;31,29
22462,5;31,29
22466,3;31,29
22470,0;31,29
22473,8;31,30
22477,5;31,30
22481,3;31,31
22485,0;31,32
22488,8;31,33
22492,5;31,35
22496,3;31,36
22500,0;31,38
22503,8;31,40
22507,5;31,42
22511,3;31,44
22515,0;31,46
22518,8;31,48
22522,5;31,51
22526,3;31,53
22530,0;31,56
22533,8;31,59
22537,5;31,61
22541,3;31,64
22545,0;31,68
22548,8;31,71
22552,5;31,75
22556,3;31,79
22560,0;31,83
22563,8;31,87
22567,5;31,91
22571,3;31,95
22575,0;31,99
22578,8;32,03
22582,5;32,06
22586,3;32,10
22590,0;32,13
22593,8;32,16
22597,5;32,19
22601,3;32,23
22605,0;32,26
22608,8;32,29
22612,5;32,32
22616,3;32,34
22620,0;32,37
22623,8;32,39
22627,5;32,42
22631,3;32,44
22635,0;32,45
22638,8;32,47
22642,5;32,48
22646,3;32,49
22650,0;32,50
22653,8;32,50
22657,5;32,50
22661,3;32,50
22665,0;32,50
22668,8;32,49
22672,5;32,49
22676,3;32,48
22680,0;32,47
22683,8;32,46
22687,5;32,45
22691,3;32,44
22695,0;32,43
22698,8;32,42
22702,5;32,41
22706,3;32,39
22710,0;32,38
22713,8;32,36
22717,5;32,34
22721,3;32,32
22725,0;32,30
22728,8;32,28
22732,5;32,27
22736,3;32,25
22740,0;32,24
22743,8;32,23
22747,5;32,22
22751,3;32,21
22755,0;32,20
22758,8;32,19
22762,5;32,19
22766,3;32,18
22770,0;32,18
22773,8;32,17
22777,5;32,17
22781,3;32,17
22785,0;32,17
22788,8;32,16
22792,5;32,17
22796,3;32,17
22800,0;32,17
22803,8;32,17
22807,5;32,18
22811,3;32,19
22815,0;32,20
22818,8;32,21
22822,5;32,22
22826,3;32,23
22830,0;32,24
22833,8;32,25
22837,5;32,26
22841,3;32,26
22845,0;32,27
22848,8;32,27
22852,5;32,28
22856,3;32,28
22860,0;32,29
22863,8;32,29
22867,5;32,29
22871,3;32,29
22875,0;32,29
22878,8;32,29
22882,5;32,29
22886,3;32,29
22890,0;32,29
22893,8;32,29
22897,5;32,28
22901,3;32,27
22905,0;32,26
22908,8;32,25
22912,5;32,24
22916,3;32,22
22920,0;32,20
22923,8;32,19
22927,5;32,17
22931,3;32,15
22935,0;32,13
22938,8;32,11
22942,5;32,09
22946,3;32,07
22950,0;32,06
22953,8;32,04
22957,5;32,02
22961,3;32,00
22965,0;31,99
22968,8;31,97
22972,5;31,95
22976,3;31,93
22980,0;31,91
22983,8;31,89
22987,5;31,88
22991,3;31,86
22995,0;31,85
22998,8;31,84
23002,5;31,83
23006,3;31,82
23010,0;31,82
23013,8;31,82
23017,5;31,82
23021,3;31,82
23025,0;31,82
23028,8;31,82
23032,5;31,83
23036,3;31,84
23040,0;31,84
23043,8;31,85
23047,5;31,86
23051,3;31,87
23055,0;31,89
23058,8;31,90
23062,5;31,91
23066,3;31,93
23070,0;31,95
23073,8;31,97
23077,5;31,99
23081,3;32,01
23085,0;32,04
23088,8;32,06
23092,5;32,08
23096,3;32,11
23100,0;32,13
23103,8;32,15
23107,5;32,17
23111,3;32,19
23115,0;32,20
23118,8;32,22
23122,5;32,24
23126,3;32,25
23130,0;32,27
23133,8;32,28
23137,5;32,30
23141,3;32,31
23145,0;32,32
23148,8;32,33
23152,5;32,34
23156,3;32,35
23160,0;32,36
23163,8;32,36
23167,5;32,37
23171,3;32,37
23175,0;32,36
23178,8;32,36
23182,5;32,36
23186,3;32,35
23190,0;32,34
23193,8;32,33
23197,5;32,32
23201,3;32,31
23205,0;32,30
23208,8;32,29
23212,5;32,28
23216,3;32,27
23220,0;32,26
23223,8;32,25
23227,5;32,24
23231,3;32,23
23235,0;32,21
23238,8;32,20
23242,5;32,19
23246,3;32,18
23250,0;32,16
23253,8;32,15
23257,5;32,14
23261,3;32,13
23265,0;32,12
23268,8;32,11
23272,5;32,11
23276,3;32,10
23280,0;32,10
23283,8;32,10
23287,5;32,10
23291,3;32,11
23295,0;32,11
23298,8;32,11
23302,5;32,12
23306,3;32,12
23310,0;32,13
23313,8;32,14
23317,5;32,14
23321,3;32,15
23325,0;32,16
23328,8;32,17
23332,5;32,18
23336,3;32,19
23340,0;32,20
23343,8;32,22
23347,5;32,23
23351,3;32,25
23355,0;32,26
23358,8;32,28
23362,5;32,29
23366,3;32,30
23370,0;32,32
23373,8;32,33
23377,5;32,34
23381,3;32,34
23385,0;32,35
23388,8;32,35
23392,5;32,35
23396,3;32,36
23400,0;32,36
23403,8;32,36
23407,5;32,36
23411,3;32,36
23415,0;32,35
23418,8;32,35
23422,5;32,34
23426,3;32,33
23430,0;32,32
23433,8;32,31
23437,5;32,30
23441,3;32,29
23445,0;32,27
23448,8;32,25
23452,5;32,23
23456,3;32,20
23460,0;32,18
23463,8;32,15
23467,5;32,12
23471,3;32,10
23475,0;32,07
23478,8;32,04
23482,5;32,02
23486,3;31,99
23490,0;31,96
23493,8;31,94
23497,5;31,92
23501,3;31,89
23505,0;31,86
23508,8;31,84
23512,5;31,81
23516,3;31,79
23520,0;31,76
23523,8;31,73
23527,5;31,71
23531,3;31,69
23535,0;31,67
23538,8;31,65
23542,5;31,63
23546,3;31,61
23550,0;31,60
23553,8;31,59
23557,5;31,58
23561,3;31,57
23565,0;31,57
23568,8;31,56
23572,5;31,56
23576,3;31,56
23580,0;31,56
23583,8;31,56
23587,5;31,56
23591,3;31,56
23595,0;31,56
23598,8;31,56
23602,5;31,57
23606,3;31,57
23610,0;31,58
23613,8;31,58
23617,5;31,59
23621,3;31,60
23625,0;31,61
23628,8;31,63
23632,5;31,64
23636,3;31,65
23640,0;31,66
23643,8;31,67
23647,5;31,68
23651,3;31,69
23655,0;31,70
23658,8;31,70
23662,5;31,71
23666,3;31,71
23670,0;31,72
23673,8;31,72
23677,5;31,73
23681,3;31,73
23685,0;31,73
23688,8;31,73
23692,5;31,73
23696,3;31,73
23700,0;31,73
23703,8;31,73
23707,5;31,73
23711,3;31,73
23715,0;31,73
23718,8;31,73
23722,5;31,73
23726,3;31,72
23730,0;31,72
23733,8;31,71
23737,5;31,70
23741,3;31,70
23745,0;31,69
23748,8;31,68
23752,5;31,68
23756,3;31,67
23760,0;31,67
23763,8;31,67
23767,5;31,67
23771,3;31,67
23775,0;31,67
23778,8;31,68
23782,5;31,68
23786,3;31,69
23790,0;31,69
23793,8;31,70
23797,5;31,71
23801,3;31,72
23805,0;31,73
23808,8;31,74
23812,5;31,75
23816,3;31,77
23820,0;31,78
23823,8;31,80
23827,5;31,82
23831,3;31,84
23835,0;31,86
23838,8;31,89
23842,5;31,91
23846,3;31,94
23850,0;31,97
23853,8;32,00
23857,5;32,03
23861,3;32,07
23865,0;32,10
23868,8;32,13
23872,5;32,16
23876,3;32,19
23880,0;32,22
23883,8;32,24
23887,5;32,27
23891,3;32,29
23895,0;32,32
23898,8;32,35
23902,5;32,37
23906,3;32,40
23910,0;32,42
23913,8;32,44
23917,5;32,47
23921,3;32,49
23925,0;32,51
23928,8;32,52
23932,5;32,54
23936,3;32,55
23940,0;32,57
23943,8;32,57
23947,5;32,58
23951,3;32,58
23955,0;32,59
23958,8;32,59
23962,5;32,58
23966,3;32,58
23970,0;32,58
23973,8;32,57
23977,5;32,56
23981,3;32,55
23985,0;32,55
23988,8;32,54
23992,5;32,53
23996,3;32,52
24000,0;32,51
24003,8;32,50
24007,5;32,49
24011,3;32,48
24015,0;32,47
24018,8;32,46
24022,5;32,44
24026,3;32,43
24030,0;32,41
24033,8;32,40
24037,5;32,39
24041,3;32,38
24045,0;32,36
24048,8;32,36
24052,5;32,35
24056,3;32,34
24060,0;32,34
24063,8;32,34
24067,5;32,34
24071,3;32,34
24075,0;32,34
24078,8;32,34
24082,5;32,35
24086,3;32,35
24090,0;32,36
24093,8;32,36
24097,5;32,37
24101,3;32,38
24105,0;32,39
24108,8;32,40
24112,5;32,41
24116,3;32,41
24120,0;32,43
24123,8;32,44
24127,5;32,46
24131,3;32,47
24135,0;32,49
24138,8;32,51
24142,5;32,53
24146,3;32,55
24150,0;32,56
24153,8;32,58
24157,5;32,60
24161,3;32,61
24165,0;32,63
24168,8;32,64
24172,5;32,64
24176,3;32,65
24180,0;32,65
24183,8;32,66
24187,5;32,66
24191,3;32,66
24195,0;32,66
24198,8;32,66
24202,5;32,66
24206,3;32,66
24210,0;32,65
24213,8;32,64
24217,5;32,63
24221,3;32,62
24225,0;32,61
24228,8;32,59
24232,5;32,57
24236,3;32,55
24240,0;32,53
24243,8;32,50
24247,5;32,47
24251,3;32,43
24255,0;32,40
24258,8;32,36
24262,5;32,32
24266,3;32,28
24270,0;32,24
24273,8;32,20
24277,5;32,15
24281,3;32,11
24285,0;32,07
24288,8;32,04
24292,5;32,00
24296,3;31,96
24300,0;31,92
24303,8;31,88
24307,5;31,84
24311,3;31,79
24315,0;31,75
24318,8;31,71
24322,5;31,66
24326,3;31,62
24330,0;31,58
24333,8;31,55
24337,5;31,51
24341,3;31,48
24345,0;31,46
24348,8;31,43
24352,5;31,42
24356,3;31,40
24360,0;31,39
24363,8;31,38
24367,5;31,37
24371,3;31,37
24375,0;31,37
24378,8;31,37
24382,5;31,37
24386,3;31,37
24390,0;31,38
24393,8;31,39
24397,5;31,40
24401,3;31,42
24405,0;31,44
24408,8;31,46
24412,5;31,48
24416,3;31,50
24420,0;31,53
24423,8;31,57
24427,5;31,61
24431,3;31,65
24435,0;31,69
24438,8;31,73
24442,5;31,78
24446,3;31,83
24450,0;31,87
24453,8;31,92
24457,5;31,96
24461,3;32,00
24465,0;32,05
24468,8;32,08
24472,5;32,12
24476,3;32,16
24480,0;32,20
24483,8;32,24
24487,5;32,28
24491,3;32,32
24495,0;32,35
24498,8;32,39
24502,5;32,43
24506,3;32,46
24510,0;32,50
24513,8;32,53
24517,5;32,55
24521,3;32,58
24525,0;32,60
24528,8;32,61
24532,5;32,63
24536,3;32,63
24540,0;32,64
24543,8;32,64
24547,5;32,64
24551,3;32,64
24555,0;32,63
24558,8;32,63
24562,5;32,62
24566,3;32,61
24570,0;32,59
24573,8;32,58
24577,5;32,56
24581,3;32,55
24585,0;32,53
24588,8;32,51
24592,5;32,49
24596,3;32,47
24600,0;32,45
24603,8;32,42
24607,5;32,39
24611,3;32,36
24615,0;32,33
24618,8;32,30
24622,5;32,26
24626,3;32,23
24630,0;32,20
24633,8;32,16
24637,5;32,13
24641,3;32,11
24645,0;32,08
24648,8;32,05
24652,5;32,03
24656,3;32,01
24660,0;31,99
24663,8;31,97
24667,5;31,96
24671,3;31,94
24675,0;31,92
24678,8;31,91
24682,5;31,89
24686,3;31,88
24690,0;31,87
24693,8;31,86
24697,5;31,85
24701,3;31,84
24705,0;31,84
24708,8;31,83
24712,5;31,83
24716,3;31,83
24720,0;31,84
24723,8;31,84
24727,5;31,85
24731,3;31,86
24735,0;31,87
24738,8;31,88
24742,5;31,89
24746,3;31,91
24750,0;31,92
24753,8;31,93
24757,5;31,94
24761,3;31,96
24765,0;31,97
24768,8;31,98
24772,5;31,99
24776,3;31,99
24780,0;32,00
24783,8;32,01
24787,5;32,02
24791,3;32,02
24795,0;32,03
24798,8;32,04
24802,5;32,04
24806,3;32,05
24810,0;32,05
24813,8;32,06
24817,5;32,06
24821,3;32,07
24825,0;32,07
24828,8;32,07
24832,5;32,07
24836,3;32,06
24840,0;32,06
24843,8;32,05
24847,5;32,04
24851,3;32,03
24855,0;32,02
24858,8;32,01
24862,5;32,00
24866,3;31,99
24870,0;31,97
24873,8;31,96
24877,5;31,95
24881,3;31,94
24885,0;31,93
24888,8;31,92
24892,5;31,91
24896,3;31,90
24900,0;31,89
24903,8;31,89
24907,5;31,89
24911,3;31,88
24915,0;31,88
24918,8;31,88
24922,5;31,88
24926,3;31,87
24930,0;31,87
24933,8;31,87
24937,5;31,87
24941,3;31,87
24945,0;31,87
24948,8;31,87
24952,5;31,87
24956,3;31,86
24960,0;31,86
