Created as New Dataset;Sample 011 By student Date s—ndag, februari 22 2026
nm;%T
1500,0;30,73
1503,8;27,83
1507,5;27,02
1511,3;27,43
1515,0;28,55
1518,8;27,47
1522,5;28,51
1526,3;29,04
1530,0;28,21
1533,8;28,68
1537,5;28,47
1541,3;28,08
1545,0;26,98
1548,8;26,62
1552,5;27,50
1556,3;26,95
1560,0;27,80
1563,8;27,90
1567,5;28,15
1571,3;26,21
1575,0;25,97
1578,8;26,34
1582,5;26,56
1586,3;26,71
1590,0;25,40
1593,8;25,50
1597,5;24,64
1601,3;24,90
1605,0;25,56
1608,8;25,39
1612,5;24,69
1616,3;24,36
1620,0;23,29
1623,8;23,89
1627,5;24,77
1631,3;25,59
1635,0;24,39
1638,8;24,33
1642,5;24,92
1646,3;25,79
1650,0;24,88
1653,8;25,07
1657,5;26,53
1661,3;25,06
1665,0;26,66
1668,8;26,71
1672,5;27,84
1676,3;28,39
1680,0;27,32
1683,8;27,53
1687,5;28,09
1691,3;29,08
1695,0;28,75
1698,8;28,47
1702,5;28,94
1706,3;28,64
1710,0;29,68
1713,8;28,17
1717,5;30,03
1721,3;29,38
1725,0;28,53
1728,8;27,47
1732,5;29,03
1736,3;27,86
1740,0;26,37
1743,8;26,01
1747,5;26,81
1751,3;24,66
1755,0;24,33
1758,8;24,92
1762,5;23,39
1766,3;23,36
1770,0;22,60
1773,8;22,25
1777,5;21,68
1781,3;20,74
1785,0;20,56
1788,8;19,79
1792,5;19,71
1796,3;19,00
1800,0;17,86
1803,8;17,82
1807,5;17,77
1811,3;17,45
1815,0;17,10
1818,8;16,89
1822,5;18,49
1826,3;17,04
1830,0;16,10
1833,8;15,91
1837,5;17,11
1841,3;15,20
1845,0;14,58
1848,8;14,90
1852,5;14,94
1856,3;14,80
1860,0;14,69
1863,8;14,47
1867,5;15,19
1871,3;16,44
1875,0;14,83
1878,8;13,98
1882,5;14,88
1886,3;14,20
1890,0;14,88
1893,8;15,42
1897,5;15,02
1901,3;14,90
1905,0;17,12
1908,8;16,63
1912,5;17,25
1916,3;16,40
1920,0;17,13
1923,8;16,89
1927,5;16,54
1931,3;17,75
1935,0;18,37
1938,8;18,59
1942,5;18,47
1946,3;19,15
1950,0;19,08
1953,8;18,78
1957,5;19,27
1961,3;20,75
1965,0;20,48
1968,8;19,64
1972,5;20,38
1976,3;19,79
1980,0;20,45
1983,8;21,37
1987,5;21,57
1991,3;22,90
1995,0;22,04
1998,8;21,94
2002,5;22,72
2006,3;22,24
2010,0;22,48
2013,8;23,43
2017,5;24,28
2021,3;24,31
2025,0;24,07
2028,8;23,82
2032,5;24,35
2036,3;23,54
2040,0;26,20
2043,8;24,50
2047,5;25,44
2051,3;24,61
2055,0;26,01
2058,8;26,16
2062,5;24,84
2066,3;24,63
2070,0;27,02
2073,8;24,67
2077,5;26,78
2081,3;27,19
2085,0;26,16
2088,8;25,78
2092,5;26,66
2096,3;27,17
2100,0;27,32
2103,8;26,43
2107,5;26,81
2111,3;27,31
2115,0;27,97
2118,8;26,25
2122,5;29,09
2126,3;29,07
2130,0;30,91
2133,8;28,40
2137,5;28,86
2141,3;28,16
2145,0;27,66
2148,8;27,81
2152,5;29,39
2156,3;27,22
2160,0;29,88
2163,8;31,70
2167,5;32,87
2171,3;31,89
2175,0;30,38
2178,8;33,50
2182,5;30,11
2186,3;31,37
2190,0;32,54
2193,8;32,05
2197,5;32,21
2201,3;29,51
2205,0;30,76
2208,8;35,16
2212,5;36,00
2216,3;36,40
2220,0;34,88
2223,8;37,64
2227,5;32,65
2231,3;35,33
2235,0;35,83
2238,8;37,52
2242,5;35,57
2246,3;39,45
2250,0;36,41
2253,8;32,38
2257,5;40,45
2261,3;44,60
2265,0;46,61
2268,8;42,57
2272,5;44,06
2276,3;31,85
2280,0;50,79
2283,8;37,14
2287,5;45,43
2291,3;50,51
2295,0;26,58
2298,8;38,63
2302,5;33,34
2306,3;19,72
2310,0;11,68
2313,8;15,13
2317,5;12,09
2321,3;20,34
2325,0;16,43
2328,8;20,23
2332,5;15,65
2336,3;16,79
2340,0;15,49
2343,8;17,65
2347,5;15,73
2351,3;20,91
2355,0;21,05
2358,8;17,12
2362,5;21,57
2366,3;25,32
2370,0;20,72
2373,8;24,19
2377,5;24,39
2381,3;23,47
2385,0;26,47
2388,8;25,18
2392,5;23,17
2396,3;23,56
2400,0;24,21
2403,8;26,42
2407,5;26,39
2411,3;28,96
2415,0;27,61
2418,8;28,45
2422,5;27,51
2426,3;28,07
2430,0;26,38
2433,8;28,00
2437,5;25,77
2441,3;28,05
2445,0;28,30
2448,8;26,27
2452,5;27,14
2456,3;28,61
2460,0;26,20
2463,8;27,86
2467,5;27,44
2471,3;28,03
2475,0;28,47
2478,8;27,90
2482,5;26,97
2486,3;27,68
2490,0;28,54
2493,8;27,92
2497,5;28,47
2501,3;29,30
2505,0;28,65
2508,8;28,92
2512,5;29,56
2516,3;28,86
2520,0;28,24
2523,8;28,92
2527,5;29,29
2531,3;29,14
2535,0;29,26
2538,8;29,87
2542,5;29,26
2546,3;28,91
2550,0;29,26
2553,8;29,64
2557,5;29,95
2561,3;29,04
2565,0;29,67
2568,8;29,91
2572,5;28,92
2576,3;28,53
2580,0;29,81
2583,8;29,25
2587,5;29,85
2591,3;30,11
2595,0;29,82
2598,8;29,24
2602,5;29,60
2606,3;29,75
2610,0;29,38
2613,8;29,42
2617,5;29,37
2621,3;30,51
2625,0;30,63
2628,8;29,87
2632,5;29,64
2636,3;29,02
2640,0;29,81
2643,8;30,41
2647,5;29,76
2651,3;30,09
2655,0;30,23
2658,8;30,31
2662,5;30,82
2666,3;30,36
2670,0;30,16
2673,8;30,73
2677,5;30,93
2681,3;30,56
2685,0;30,61
2688,8;30,37
2692,5;30,45
2696,3;30,03
2700,0;31,00
2703,8;30,46
2707,5;30,73
2711,3;30,10
2715,0;31,22
2718,8;30,94
2722,5;30,40
2726,3;30,20
2730,0;30,47
2733,8;30,80
2737,5;30,52
2741,3;30,78
2745,0;30,06
2748,8;30,93
2752,5;30,58
2756,3;31,11
2760,0;30,58
2763,8;31,32
2767,5;30,75
2771,3;30,72
2775,0;30,76
2778,8;30,80
2782,5;30,60
2786,3;30,77
2790,0;30,34
2793,8;30,73
2797,5;30,59
2801,3;31,09
2805,0;30,68
2808,8;30,30
2812,5;30,64
2816,3;30,49
2820,0;30,80
2823,8;30,45
2827,5;30,33
2831,3;30,94
2835,0;31,02
2838,8;31,01
2842,5;30,17
2846,3;30,50
2850,0;30,92
2853,8;30,93
2857,5;30,49
2861,3;30,69
2865,0;30,95
2868,8;30,36
2872,5;30,37
2876,3;30,63
2880,0;30,52
2883,8;30,56
2887,5;30,97
2891,3;30,33
2895,0;30,70
2898,8;30,74
2902,5;30,63
2906,3;30,59
2910,0;30,41
2913,8;30,68
2917,5;30,70
2921,3;30,76
2925,0;30,23
2928,8;30,76
2932,5;30,80
2936,3;30,62
2940,0;30,55
2943,8;30,97
2947,5;30,73
2951,3;30,73
2955,0;30,52
2958,8;30,67
2962,5;30,66
2966,3;30,42
2970,0;30,49
2973,8;30,78
2977,5;31,04
2981,3;30,77
2985,0;30,69
2988,8;30,55
2992,5;30,75
2996,3;30,46
3000,0;30,62
3003,8;30,75
3007,5;30,77
3011,3;30,48
3015,0;30,70
3018,8;30,48
3022,5;30,59
3026,3;30,70
3030,0;30,67
3033,8;30,41
3037,5;30,87
3041,3;30,80
3045,0;30,54
3048,8;30,48
3052,5;30,55
3056,3;30,57
3060,0;30,70
3063,8;30,54
3067,5;30,66
3071,3;30,68
3075,0;30,66
3078,8;30,57
3082,5;30,89
3086,3;30,99
3090,0;30,46
3093,8;30,60
3097,5;30,59
3101,3;30,64
3105,0;30,46
3108,8;30,66
3112,5;30,45
3116,3;30,34
3120,0;30,21
3123,8;30,48
3127,5;30,84
3131,3;30,89
3135,0;30,76
3138,8;31,04
3142,5;30,76
3146,3;30,90
3150,0;30,93
3153,8;30,74
3157,5;30,97
3161,3;30,61
3165,0;30,40
3168,8;30,74
3172,5;30,93
3176,3;30,63
3180,0;30,69
3183,8;30,95
3187,5;30,88
3191,3;30,88
3195,0;30,66
3198,8;30,78
3202,5;30,65
3206,3;30,56
3210,0;30,93
3213,8;30,73
3217,5;30,49
3221,3;30,78
3225,0;30,77
3228,8;30,71
3232,5;30,85
3236,3;30,65
3240,0;30,82
3243,8;31,06
3247,5;30,79
3251,3;30,88
3255,0;30,94
3258,8;30,82
3262,5;30,76
3266,3;30,59
3270,0;30,67
3273,8;30,54
3277,5;30,55
3281,3;30,96
3285,0;30,84
3288,8;30,74
3292,5;30,63
3296,3;30,54
3300,0;30,54
3303,8;30,82
3307,5;30,73
3311,3;30,65
3315,0;30,62
3318,8;30,75
3322,5;30,61
3326,3;30,52
3330,0;30,75
3333,8;30,69
3337,5;30,78
3341,3;30,77
3345,0;30,75
3348,8;30,62
3352,5;30,69
3356,3;30,72
3360,0;30,77
3363,8;30,53
3367,5;30,46
3371,3;30,59
3375,0;30,40
3378,8;30,40
3382,5;30,49
3386,3;30,58
3390,0;30,57
3393,8;30,37
3397,5;30,54
3401,3;30,78
3405,0;30,63
3408,8;30,40
3412,5;30,39
3416,3;30,36
3420,0;30,15
3423,8;30,21
3427,5;30,16
3431,3;30,23
3435,0;30,56
3438,8;30,41
3442,5;30,39
3446,3;30,39
3450,0;30,47
3453,8;30,60
3457,5;30,63
3461,3;30,53
3465,0;30,77
3468,8;30,66
3472,5;30,59
3476,3;30,52
3480,0;30,56
3483,8;30,57
3487,5;30,60
3491,3;30,70
3495,0;30,67
3498,8;30,55
3502,5;30,47
3506,3;30,45
3510,0;30,47
3513,8;30,45
3517,5;30,55
3521,3;30,71
3525,0;30,85
3528,8;30,81
3532,5;30,75
3536,3;30,85
3540,0;30,94
3543,8;30,78
3547,5;30,73
3551,3;30,69
3555,0;30,76
3558,8;30,84
3562,5;30,86
3566,3;30,70
3570,0;30,69
3573,8;30,90
3577,5;30,96
3581,3;30,83
3585,0;30,99
3588,8;30,84
3592,5;30,87
3596,3;30,92
3600,0;30,95
3603,8;30,82
3607,5;30,91
3611,3;30,89
3615,0;30,79
3618,8;30,91
3622,5;31,00
3626,3;30,83
3630,0;30,81
3633,8;31,05
3637,5;30,98
3641,3;30,95
3645,0;30,85
3648,8;30,89
3652,5;30,98
3656,3;30,95
3660,0;31,05
3663,8;31,06
3667,5;30,95
3671,3;30,84
3675,0;30,84
3678,8;30,85
3682,5;30,78
3686,3;30,76
3690,0;30,88
3693,8;30,96
3697,5;30,95
3701,3;30,85
3705,0;30,83
3708,8;30,89
3712,5;30,89
3716,3;30,89
3720,0;30,94
3723,8;31,02
3727,5;31,04
3731,3;30,95
3735,0;31,01
3738,8;30,97
3742,5;30,98
3746,3;31,04
3750,0;30,95
3753,8;30,94
3757,5;30,96
3761,3;31,00
3765,0;30,92
3768,8;30,88
3772,5;30,77
3776,3;30,77
3780,0;30,80
3783,8;30,79
3787,5;30,89
3791,3;30,91
3795,0;30,79
3798,8;30,83
3802,5;30,80
3806,3;30,92
3810,0;30,82
3813,8;30,76
3817,5;30,87
3821,3;30,82
3825,0;30,97
3828,8;31,04
3832,5;30,92
3836,3;30,95
3840,0;30,95
3843,8;30,92
3847,5;31,07
3851,3;30,94
3855,0;30,77
3858,8;30,89
3862,5;30,99
3866,3;30,88
3870,0;30,84
3873,8;30,92
3877,5;30,91
3881,3;30,85
3885,0;31,04
3888,8;31,05
3892,5;30,86
3896,3;30,89
3900,0;30,84
3903,8;30,85
3907,5;30,87
3911,3;30,93
3915,0;30,93
3918,8;30,92
3922,5;30,97
3926,3;30,95
3930,0;30,81
3933,8;30,75
3937,5;30,77
3941,3;30,95
3945,0;30,95
3948,8;30,88
3952,5;30,93
3956,3;30,95
3960,0;30,84
3963,8;30,81
3967,5;30,96
3971,3;30,97
3975,0;30,90
3978,8;30,93
3982,5;30,92
3986,3;30,86
3990,0;30,87
3993,8;31,04
3997,5;31,06
4001,3;30,89
4005,0;30,79
4008,8;30,69
4012,5;30,70
4016,3;30,83
4020,0;30,91
4023,8;31,01
4027,5;30,98
4031,3;30,95
4035,0;30,98
4038,8;30,92
4042,5;30,86
4046,3;30,89
4050,0;30,82
4053,8;30,77
4057,5;30,86
4061,3;30,95
4065,0;30,82
4068,8;30,78
4072,5;30,90
4076,3;30,95
4080,0;30,91
4083,8;30,81
4087,5;30,79
4091,3;30,87
4095,0;30,95
4098,8;30,90
4102,5;30,86
4106,3;30,96
4110,0;30,90
4113,8;30,75
4117,5;30,81
4121,3;30,90
4125,0;30,85
4128,8;30,76
4132,5;30,80
4136,3;30,84
4140,0;30,82
4143,8;30,91
4147,5;30,98
4151,3;30,87
4155,0;30,74
4158,8;30,72
4162,5;30,75
4166,3;30,72
4170,0;30,70
4173,8;30,80
4177,5;30,81
4181,3;30,82
4185,0;30,87
4188,8;30,76
4192,5;30,71
4196,3;30,84
4200,0;30,92
4203,8;31,04
4207,5;31,25
4211,3;31,21
4215,0;31,18
4218,8;31,28
4222,5;31,30
4226,3;31,24
4230,0;31,33
4233,8;31,51
4237,5;31,47
4241,3;31,22
4245,0;31,27
4248,8;31,18
4252,5;31,11
4256,3;31,41
4260,0;31,53
4263,8;31,30
4267,5;31,39
4271,3;31,46
4275,0;31,35
4278,8;31,25
4282,5;31,24
4286,3;31,40
4290,0;31,31
4293,8;31,24
4297,5;31,19
4301,3;31,07
4305,0;31,06
4308,8;31,07
4312,5;31,06
4316,3;31,02
4320,0;30,89
4323,8;30,90
4327,5;30,99
4331,3;30,99
4335,0;30,95
4338,8;30,95
4342,5;30,96
4346,3;30,97
4350,0;30,90
4353,8;30,87
4357,5;30,86
4361,3;30,80
4365,0;30,76
4368,8;30,72
4372,5;30,62
4376,3;30,55
4380,0;30,54
4383,8;30,55
4387,5;30,59
4391,3;30,68
4395,0;30,76
4398,8;30,78
4402,5;30,72
4406,3;30,70
4410,0;30,71
4413,8;30,76
4417,5;30,81
4421,3;30,81
4425,0;30,71
4428,8;30,57
4432,5;30,59
4436,3;30,64
4440,0;30,62
4443,8;30,61
4447,5;30,64
4451,3;30,65
4455,0;30,58
4458,8;30,53
4462,5;30,53
4466,3;30,59
4470,0;30,63
4473,8;30,56
4477,5;30,55
4481,3;30,60
4485,0;30,52
4488,8;30,46
4492,5;30,52
4496,3;30,55
4500,0;30,53
4503,8;30,52
4507,5;30,53
4511,3;30,54
4515,0;30,50
4518,8;30,46
4522,5;30,54
4526,3;30,61
4530,0;30,59
4533,8;30,53
4537,5;30,47
4541,3;30,49
4545,0;30,55
4548,8;30,60
4552,5;30,57
4556,3;30,56
4560,0;30,58
4563,8;30,58
4567,5;30,59
4571,3;30,60
4575,0;30,55
4578,8;30,52
4582,5;30,53
4586,3;30,49
4590,0;30,43
4593,8;30,46
4597,5;30,50
4601,3;30,50
4605,0;30,48
4608,8;30,46
4612,5;30,42
4616,3;30,41
4620,0;30,41
4623,8;30,41
4627,5;30,44
4631,3;30,49
4635,0;30,58
4638,8;30,60
4642,5;30,54
4646,3;30,50
4650,0;30,47
4653,8;30,41
4657,5;30,40
4661,3;30,44
4665,0;30,48
4668,8;30,43
4672,5;30,41
4676,3;30,45
4680,0;30,42
4683,8;30,37
4687,5;30,38
4691,3;30,37
4695,0;30,35
4698,8;30,36
4702,5;30,38
4706,3;30,37
4710,0;30,35
4713,8;30,35
4717,5;30,36
4721,3;30,39
4725,0;30,40
4728,8;30,37
4732,5;30,33
4736,3;30,31
4740,0;30,36
4743,8;30,44
4747,5;30,43
4751,3;30,38
4755,0;30,40
4758,8;30,42
4762,5;30,40
4766,3;30,36
4770,0;30,32
4773,8;30,29
4777,5;30,28
4781,3;30,28
4785,0;30,31
4788,8;30,37
4792,5;30,36
4796,3;30,31
4800,0;30,28
4803,8;30,30
4807,5;30,36
4811,3;30,32
4815,0;30,24
4818,8;30,26
4822,5;30,31
4826,3;30,35
4830,0;30,38
4833,8;30,33
4837,5;30,26
4841,3;30,23
4845,0;30,25
4848,8;30,27
4852,5;30,29
4856,3;30,29
4860,0;30,24
4863,8;30,24
4867,5;30,26
4871,3;30,27
4875,0;30,29
4878,8;30,32
4882,5;30,33
4886,3;30,31
4890,0;30,26
4893,8;30,25
4897,5;30,28
4901,3;30,29
4905,0;30,28
4908,8;30,28
4912,5;30,25
4916,3;30,20
4920,0;30,16
4923,8;30,16
4927,5;30,17
4931,3;30,18
4935,0;30,19
4938,8;30,21
4942,5;30,26
4946,3;30,31
4950,0;30,32
4953,8;30,31
4957,5;30,26
4961,3;30,20
4965,0;30,15
4968,8;30,12
4972,5;30,12
4976,3;30,13
4980,0;30,15
4983,8;30,14
4987,5;30,10
4991,3;30,10
4995,0;30,12
4998,8;30,12
5002,5;30,11
5006,3;30,12
5010,0;30,12
5013,8;30,12
5017,5;30,15
5021,3;30,20
5025,0;30,25
5028,8;30,25
5032,5;30,20
5036,3;30,15
5040,0;30,18
5043,8;30,21
5047,5;30,22
5051,3;30,22
5055,0;30,17
5058,8;30,12
5062,5;30,13
5066,3;30,16
5070,0;30,16
5073,8;30,15
5077,5;30,16
5081,3;30,17
5085,0;30,19
5088,8;30,19
5092,5;30,17
5096,3;30,13
5100,0;30,12
5103,8;30,13
5107,5;30,12
5111,3;30,12
5115,0;30,14
5118,8;30,12
5122,5;30,05
5126,3;30,02
5130,0;30,05
5133,8;30,08
5137,5;30,07
5141,3;30,04
5145,0;30,02
5148,8;30,04
5152,5;30,06
5156,3;30,09
5160,0;30,10
5163,8;30,07
5167,5;30,04
5171,3;30,07
5175,0;30,13
5178,8;30,16
5182,5;30,13
5186,3;30,11
5190,0;30,12
5193,8;30,10
5197,5;30,04
5201,3;30,01
5205,0;30,02
5208,8;30,01
5212,5;29,99
5216,3;30,00
5220,0;30,03
5223,8;30,06
5227,5;30,06
5231,3;30,07
5235,0;30,08
5238,8;30,09
5242,5;30,10
5246,3;30,08
5250,0;30,02
5253,8;29,97
5257,5;29,98
5261,3;29,98
5265,0;29,95
5268,8;29,92
5272,5;29,91
5276,3;29,93
5280,0;29,94
5283,8;29,95
5287,5;29,95
5291,3;29,95
5295,0;29,95
5298,8;29,96
5302,5;29,98
5306,3;30,03
5310,0;30,07
5313,8;30,07
5317,5;30,07
5321,3;30,08
5325,0;30,08
5328,8;30,06
5332,5;30,04
5336,3;30,04
5340,0;30,06
5343,8;30,08
5347,5;30,07
5351,3;30,05
5355,0;30,04
5358,8;30,04
5362,5;30,07
5366,3;30,12
5370,0;30,14
5373,8;30,12
5377,5;30,09
5381,3;30,08
5385,0;30,08
5388,8;30,06
5392,5;30,03
5396,3;30,00
5400,0;29,98
5403,8;29,97
5407,5;29,99
5411,3;30,02
5415,0;30,05
5418,8;30,06
5422,5;30,05
5426,3;30,05
5430,0;30,03
5433,8;30,01
5437,5;29,99
5441,3;29,97
5445,0;29,95
5448,8;29,96
5452,5;29,96
5456,3;29,95
5460,0;29,93
5463,8;29,93
5467,5;29,93
5471,3;29,89
5475,0;29,85
5478,8;29,82
5482,5;29,81
5486,3;29,79
5490,0;29,77
5493,8;29,76
5497,5;29,78
5501,3;29,80
5505,0;29,80
5508,8;29,77
5512,5;29,74
5516,3;29,72
5520,0;29,72
5523,8;29,75
5527,5;29,76
5531,3;29,75
5535,0;29,73
5538,8;29,72
5542,5;29,71
5546,3;29,69
5550,0;29,67
5553,8;29,67
5557,5;29,65
5561,3;29,60
5565,0;29,54
5568,8;29,52
5572,5;29,53
5576,3;29,53
5580,0;29,52
5583,8;29,53
5587,5;29,53
5591,3;29,50
5595,0;29,48
5598,8;29,50
5602,5;29,51
5606,3;29,50
5610,0;29,49
5613,8;29,49
5617,5;29,51
5621,3;29,50
5625,0;29,45
5628,8;29,42
5632,5;29,41
5636,3;29,42
5640,0;29,42
5643,8;29,41
5647,5;29,40
5651,3;29,40
5655,0;29,40
5658,8;29,41
5662,5;29,41
5666,3;29,38
5670,0;29,33
5673,8;29,28
5677,5;29,24
5681,3;29,21
5685,0;29,18
5688,8;29,19
5692,5;29,19
5696,3;29,17
5700,0;29,11
5703,8;29,07
5707,5;29,06
5711,3;29,06
5715,0;29,06
5718,8;29,07
5722,5;29,09
5726,3;29,08
5730,0;29,02
5733,8;28,94
5737,5;28,90
5741,3;28,90
5745,0;28,90
5748,8;28,92
5752,5;28,93
5756,3;28,92
5760,0;28,92
5763,8;28,94
5767,5;28,99
5771,3;29,03
5775,0;29,01
5778,8;28,97
5782,5;28,95
5786,3;28,93
5790,0;28,91
5793,8;28,92
5797,5;28,94
5801,3;28,94
5805,0;28,92
5808,8;28,90
5812,5;28,90
5816,3;28,94
5820,0;28,97
5823,8;28,97
5827,5;28,93
5831,3;28,92
5835,0;28,92
5838,8;28,91
5842,5;28,89
5846,3;28,90
5850,0;28,92
5853,8;28,94
5857,5;28,95
5861,3;28,99
5865,0;29,03
5868,8;29,06
5872,5;29,05
5876,3;29,03
5880,0;28,99
5883,8;28,97
5887,5;28,97
5891,3;28,97
5895,0;28,98
5898,8;29,01
5902,5;29,01
5906,3;28,96
5910,0;28,93
5913,8;28,94
5917,5;28,95
5921,3;28,95
5925,0;28,93
5928,8;28,93
5932,5;28,92
5936,3;28,90
5940,0;28,91
5943,8;28,90
5947,5;28,86
5951,3;28,81
5955,0;28,76
5958,8;28,71
5962,5;28,70
5966,3;28,73
5970,0;28,77
5973,8;28,77
5977,5;28,74
5981,3;28,70
5985,0;28,66
5988,8;28,62
5992,5;28,60
5996,3;28,61
6000,0;28,62
6003,8;28,64
6007,5;28,66
6011,3;28,68
6015,0;28,68
6018,8;28,67
6022,5;28,65
6026,3;28,63
6030,0;28,64
6033,8;28,67
6037,5;28,71
6041,3;28,73
6045,0;28,71
6048,8;28,69
6052,5;28,71
6056,3;28,70
6060,0;28,64
6063,8;28,61
6067,5;28,61
6071,3;28,61
6075,0;28,60
6078,8;28,57
6082,5;28,54
6086,3;28,54
6090,0;28,55
6093,8;28,56
6097,5;28,56
6101,3;28,55
6105,0;28,55
6108,8;28,58
6112,5;28,60
6116,3;28,62
6120,0;28,64
6123,8;28,63
6127,5;28,63
6131,3;28,63
6135,0;28,64
6138,8;28,65
6142,5;28,66
6146,3;28,67
6150,0;28,67
6153,8;28,66
6157,5;28,64
6161,3;28,63
6165,0;28,64
6168,8;28,68
6172,5;28,73
6176,3;28,79
6180,0;28,81
6183,8;28,80
6187,5;28,79
6191,3;28,76
6195,0;28,72
6198,8;28,68
6202,5;28,67
6206,3;28,67
6210,0;28,66
6213,8;28,64
6217,5;28,64
6221,3;28,65
6225,0;28,66
6228,8;28,65
6232,5;28,62
6236,3;28,59
6240,0;28,56
6243,8;28,56
6247,5;28,60
6251,3;28,65
6255,0;28,68
6258,8;28,68
6262,5;28,65
6266,3;28,63
6270,0;28,61
6273,8;28,62
6277,5;28,64
6281,3;28,67
6285,0;28,69
6288,8;28,69
6292,5;28,67
6296,3;28,64
6300,0;28,62
6303,8;28,63
6307,5;28,66
6311,3;28,70
6315,0;28,70
6318,8;28,66
6322,5;28,62
6326,3;28,62
6330,0;28,65
6333,8;28,70
6337,5;28,75
6341,3;28,77
6345,0;28,75
6348,8;28,70
6352,5;28,64
6356,3;28,59
6360,0;28,56
6363,8;28,55
6367,5;28,55
6371,3;28,56
6375,0;28,59
6378,8;28,60
6382,5;28,59
6386,3;28,58
6390,0;28,58
6393,8;28,60
6397,5;28,62
6401,3;28,64
6405,0;28,64
6408,8;28,61
6412,5;28,54
6416,3;28,51
6420,0;28,53
6423,8;28,52
6427,5;28,49
6431,3;28,46
6435,0;28,44
6438,8;28,44
6442,5;28,47
6446,3;28,51
6450,0;28,55
6453,8;28,57
6457,5;28,57
6461,3;28,56
6465,0;28,54
6468,8;28,53
6472,5;28,52
6476,3;28,52
6480,0;28,53
6483,8;28,54
6487,5;28,51
6491,3;28,46
6495,0;28,44
6498,8;28,46
6502,5;28,48
6506,3;28,48
6510,0;28,47
6513,8;28,48
6517,5;28,48
6521,3;28,49
6525,0;28,50
6528,8;28,50
6532,5;28,50
6536,3;28,49
6540,0;28,48
6543,8;28,48
6547,5;28,50
6551,3;28,53
6555,0;28,56
6558,8;28,57
6562,5;28,56
6566,3;28,53
6570,0;28,49
6573,8;28,46
6577,5;28,45
6581,3;28,43
6585,0;28,43
6588,8;28,43
6592,5;28,45
6596,3;28,46
6600,0;28,47
6603,8;28,48
6607,5;28,50
6611,3;28,54
6615,0;28,56
6618,8;28,58
6622,5;28,57
6626,3;28,56
6630,0;28,52
6633,8;28,49
6637,5;28,46
6641,3;28,45
6645,0;28,45
6648,8;28,45
6652,5;28,45
6656,3;28,44
6660,0;28,44
6663,8;28,43
6667,5;28,43
6671,3;28,45
6675,0;28,48
6678,8;28,49
6682,5;28,47
6686,3;28,42
6690,0;28,36
6693,8;28,30
6697,5;28,24
6701,3;28,21
6705,0;28,19
6708,8;28,21
6712,5;28,24
6716,3;28,28
6720,0;28,32
6723,8;28,34
6727,5;28,35
6731,3;28,33
6735,0;28,31
6738,8;28,29
6742,5;28,27
6746,3;28,27
6750,0;28,27
6753,8;28,28
6757,5;28,29
6761,3;28,29
6765,0;28,27
6768,8;28,26
6772,5;28,24
6776,3;28,23
6780,0;28,23
6783,8;28,21
6787,5;28,19
6791,3;28,16
6795,0;28,14
6798,8;28,13
6802,5;28,11
6806,3;28,08
6810,0;28,05
6813,8;28,04
6817,5;28,02
6821,3;28,01
6825,0;28,00
6828,8;27,99
6832,5;27,97
6836,3;27,95
6840,0;27,93
6843,8;27,92
6847,5;27,91
6851,3;27,91
6855,0;27,91
6858,8;27,90
6862,5;27,89
6866,3;27,88
6870,0;27,88
6873,8;27,88
6877,5;27,87
6881,3;27,86
6885,0;27,86
6888,8;27,87
6892,5;27,87
6896,3;27,88
6900,0;27,87
6903,8;27,86
6907,5;27,85
6911,3;27,84
6915,0;27,84
6918,8;27,83
6922,5;27,80
6926,3;27,77
6930,0;27,75
6933,8;27,76
6937,5;27,78
6941,3;27,81
6945,0;27,82
6948,8;27,82
6952,5;27,81
6956,3;27,81
6960,0;27,80
6963,8;27,80
6967,5;27,81
6971,3;27,80
6975,0;27,81
6978,8;27,81
6982,5;27,82
6986,3;27,84
6990,0;27,86
6993,8;27,88
6997,5;27,90
7001,3;27,92
7005,0;27,92
7008,8;27,90
7012,5;27,88
7016,3;27,85
7020,0;27,82
7023,8;27,81
7027,5;27,81
7031,3;27,83
7035,0;27,85
7038,8;27,86
7042,5;27,85
7046,3;27,82
7050,0;27,81
7053,8;27,80
7057,5;27,81
7061,3;27,81
7065,0;27,81
7068,8;27,80
7072,5;27,80
7076,3;27,81
7080,0;27,81
7083,8;27,81
7087,5;27,83
7091,3;27,85
7095,0;27,88
7098,8;27,91
7102,5;27,93
7106,3;27,92
7110,0;27,90
7113,8;27,88
7117,5;27,86
7121,3;27,84
7125,0;27,83
7128,8;27,82
7132,5;27,81
7136,3;27,81
7140,0;27,81
7143,8;27,82
7147,5;27,83
7151,3;27,84
7155,0;27,85
7158,8;27,86
7162,5;27,85
7166,3;27,83
7170,0;27,81
7173,8;27,80
7177,5;27,79
7181,3;27,78
7185,0;27,78
7188,8;27,78
7192,5;27,77
7196,3;27,77
7200,0;27,78
7203,8;27,78
7207,5;27,77
7211,3;27,76
7215,0;27,75
7218,8;27,74
7222,5;27,71
7226,3;27,68
7230,0;27,64
7233,8;27,61
7237,5;27,59
7241,3;27,59
7245,0;27,61
7248,8;27,64
7252,5;27,67
7256,3;27,69
7260,0;27,70
7263,8;27,70
7267,5;27,70
7271,3;27,69
7275,0;27,68
7278,8;27,67
7282,5;27,66
7286,3;27,66
7290,0;27,66
7293,8;27,67
7297,5;27,69
7301,3;27,70
7305,0;27,71
7308,8;27,72
7312,5;27,73
7316,3;27,72
7320,0;27,71
7323,8;27,70
7327,5;27,68
7331,3;27,68
7335,0;27,68
7338,8;27,69
7342,5;27,70
7346,3;27,71
7350,0;27,71
7353,8;27,70
7357,5;27,71
7361,3;27,71
7365,0;27,72
7368,8;27,73
7372,5;27,73
7376,3;27,73
7380,0;27,72
7383,8;27,72
7387,5;27,73
7391,3;27,75
7395,0;27,77
7398,8;27,79
7402,5;27,80
7406,3;27,80
7410,0;27,79
7413,8;27,77
7417,5;27,74
7421,3;27,73
7425,0;27,72
7428,8;27,73
7432,5;27,74
7436,3;27,77
7440,0;27,79
7443,8;27,80
7447,5;27,82
7451,3;27,82
7455,0;27,81
7458,8;27,79
7462,5;27,76
7466,3;27,72
7470,0;27,68
7473,8;27,66
7477,5;27,65
7481,3;27,66
7485,0;27,68
7488,8;27,69
7492,5;27,71
7496,3;27,72
7500,0;27,73
7503,8;27,73
7507,5;27,73
7511,3;27,73
7515,0;27,73
7518,8;27,73
7522,5;27,74
7526,3;27,74
7530,0;27,74
7533,8;27,73
7537,5;27,72
7541,3;27,72
7545,0;27,71
7548,8;27,71
7552,5;27,71
7556,3;27,70
7560,0;27,68
7563,8;27,66
7567,5;27,65
7571,3;27,64
7575,0;27,63
7578,8;27,63
7582,5;27,62
7586,3;27,62
7590,0;27,62
7593,8;27,62
7597,5;27,62
7601,3;27,62
7605,0;27,62
7608,8;27,62
7612,5;27,62
7616,3;27,61
7620,0;27,59
7623,8;27,56
7627,5;27,53
7631,3;27,50
7635,0;27,49
7638,8;27,50
7642,5;27,52
7646,3;27,56
7650,0;27,59
7653,8;27,60
7657,5;27,61
7661,3;27,61
7665,0;27,61
7668,8;27,61
7672,5;27,60
7676,3;27,59
7680,0;27,58
7683,8;27,57
7687,5;27,55
7691,3;27,55
7695,0;27,54
7698,8;27,55
7702,5;27,57
7706,3;27,59
7710,0;27,61
7713,8;27,62
7717,5;27,62
7721,3;27,61
7725,0;27,59
7728,8;27,57
7732,5;27,54
7736,3;27,52
7740,0;27,50
7743,8;27,49
7747,5;27,47
7751,3;27,46
7755,0;27,45
7758,8;27,44
7762,5;27,43
7766,3;27,42
7770,0;27,41
7773,8;27,41
7777,5;27,41
7781,3;27,41
7785,0;27,42
7788,8;27,43
7792,5;27,43
7796,3;27,43
7800,0;27,42
7803,8;27,41
7807,5;27,41
7811,3;27,43
7815,0;27,45
7818,8;27,48
7822,5;27,50
7826,3;27,52
7830,0;27,51
7833,8;27,50
7837,5;27,47
7841,3;27,45
7845,0;27,42
7848,8;27,40
7852,5;27,38
7856,3;27,35
7860,0;27,33
7863,8;27,31
7867,5;27,29
7871,3;27,29
7875,0;27,29
7878,8;27,29
7882,5;27,30
7886,3;27,31
7890,0;27,31
7893,8;27,31
7897,5;27,32
7901,3;27,32
7905,0;27,33
7908,8;27,33
7912,5;27,34
7916,3;27,35
7920,0;27,36
7923,8;27,36
7927,5;27,36
7931,3;27,36
7935,0;27,36
7938,8;27,35
7942,5;27,34
7946,3;27,33
7950,0;27,32
7953,8;27,31
7957,5;27,29
7961,3;27,29
7965,0;27,28
7968,8;27,28
7972,5;27,29
7976,3;27,29
7980,0;27,29
7983,8;27,28
7987,5;27,26
7991,3;27,25
7995,0;27,23
7998,8;27,21
8002,5;27,20
8006,3;27,20
8010,0;27,20
8013,8;27,20
8017,5;27,21
8021,3;27,23
8025,0;27,24
8028,8;27,26
8032,5;27,28
8036,3;27,29
8040,0;27,29
8043,8;27,29
8047,5;27,29
8051,3;27,29
8055,0;27,29
8058,8;27,29
8062,5;27,29
8066,3;27,29
8070,0;27,29
8073,8;27,29
8077,5;27,29
8081,3;27,30
8085,0;27,31
8088,8;27,33
8092,5;27,35
8096,3;27,37
8100,0;27,38
8103,8;27,37
8107,5;27,35
8111,3;27,32
8115,0;27,29
8118,8;27,26
8122,5;27,24
8126,3;27,23
8130,0;27,23
8133,8;27,25
8137,5;27,27
8141,3;27,29
8145,0;27,32
8148,8;27,33
8152,5;27,34
8156,3;27,34
8160,0;27,34
8163,8;27,34
8167,5;27,34
8171,3;27,34
8175,0;27,35
8178,8;27,36
8182,5;27,37
8186,3;27,37
8190,0;27,37
8193,8;27,35
8197,5;27,33
8201,3;27,31
8205,0;27,28
8208,8;27,26
8212,5;27,24
8216,3;27,23
8220,0;27,22
8223,8;27,22
8227,5;27,22
8231,3;27,23
8235,0;27,24
8238,8;27,25
8242,5;27,26
8246,3;27,27
8250,0;27,28
8253,8;27,28
8257,5;27,27
8261,3;27,24
8265,0;27,21
8268,8;27,18
8272,5;27,15
8276,3;27,14
8280,0;27,13
8283,8;27,14
8287,5;27,15
8291,3;27,17
8295,0;27,20
8298,8;27,22
8302,5;27,24
8306,3;27,26
8310,0;27,28
8313,8;27,30
8317,5;27,31
8321,3;27,30
8325,0;27,29
8328,8;27,27
8332,5;27,24
8336,3;27,21
8340,0;27,18
8343,8;27,16
8347,5;27,15
8351,3;27,14
8355,0;27,14
8358,8;27,13
8362,5;27,13
8366,3;27,13
8370,0;27,14
8373,8;27,14
8377,5;27,14
8381,3;27,14
8385,0;27,14
8388,8;27,13
8392,5;27,12
8396,3;27,12
8400,0;27,12
8403,8;27,13
8407,5;27,13
8411,3;27,13
8415,0;27,12
8418,8;27,10
8422,5;27,08
8426,3;27,05
8430,0;27,03
8433,8;27,01
8437,5;26,99
8441,3;26,99
8445,0;26,98
8448,8;26,98
8452,5;26,99
8456,3;27,00
8460,0;27,00
8463,8;27,01
8467,5;27,01
8471,3;27,01
8475,0;27,01
8478,8;27,01
8482,5;27,02
8486,3;27,02
8490,0;27,03
8493,8;27,05
8497,5;27,06
8501,3;27,07
8505,0;27,08
8508,8;27,08
8512,5;27,08
8516,3;27,07
8520,0;27,06
8523,8;27,05
8527,5;27,03
8531,3;27,00
8535,0;26,98
8538,8;26,95
8542,5;26,93
8546,3;26,92
8550,0;26,93
8553,8;26,94
8557,5;26,97
8561,3;27,00
8565,0;27,02
8568,8;27,04
8572,5;27,05
8576,3;27,05
8580,0;27,05
8583,8;27,03
8587,5;27,01
8591,3;26,98
8595,0;26,95
8598,8;26,92
8602,5;26,90
8606,3;26,88
8610,0;26,86
8613,8;26,86
8617,5;26,85
8621,3;26,86
8625,0;26,85
8628,8;26,85
8632,5;26,84
8636,3;26,83
8640,0;26,82
8643,8;26,81
8647,5;26,81
8651,3;26,82
8655,0;26,84
8658,8;26,87
8662,5;26,89
8666,3;26,92
8670,0;26,93
8673,8;26,93
8677,5;26,91
8681,3;26,88
8685,0;26,84
8688,8;26,80
8692,5;26,77
8696,3;26,74
8700,0;26,72
8703,8;26,70
8707,5;26,69
8711,3;26,68
8715,0;26,68
8718,8;26,67
8722,5;26,67
8726,3;26,67
8730,0;26,67
8733,8;26,67
8737,5;26,67
8741,3;26,67
8745,0;26,67
8748,8;26,67
8752,5;26,67
8756,3;26,68
8760,0;26,69
8763,8;26,71
8767,5;26,73
8771,3;26,75
8775,0;26,77
8778,8;26,78
8782,5;26,79
8786,3;26,78
8790,0;26,77
8793,8;26,75
8797,5;26,74
8801,3;26,71
8805,0;26,69
8808,8;26,68
8812,5;26,66
8816,3;26,65
8820,0;26,63
8823,8;26,62
8827,5;26,61
8831,3;26,60
8835,0;26,59
8838,8;26,59
8842,5;26,59
8846,3;26,59
8850,0;26,59
8853,8;26,60
8857,5;26,61
8861,3;26,62
8865,0;26,63
8868,8;26,63
8872,5;26,64
8876,3;26,63
8880,0;26,63
8883,8;26,61
8887,5;26,60
8891,3;26,58
8895,0;26,56
8898,8;26,54
8902,5;26,53
8906,3;26,52
8910,0;26,52
8913,8;26,53
8917,5;26,54
8921,3;26,55
8925,0;26,56
8928,8;26,58
8932,5;26,60
8936,3;26,61
8940,0;26,62
8943,8;26,64
8947,5;26,65
8951,3;26,66
8955,0;26,66
8958,8;26,66
8962,5;26,66
8966,3;26,66
8970,0;26,66
8973,8;26,65
8977,5;26,64
8981,3;26,63
8985,0;26,62
8988,8;26,61
8992,5;26,60
8996,3;26,58
9000,0;26,57
9003,8;26,55
9007,5;26,54
9011,3;26,53
9015,0;26,53
9018,8;26,52
9022,5;26,52
9026,3;26,52
9030,0;26,52
9033,8;26,52
9037,5;26,51
9041,3;26,51
9045,0;26,50
9048,8;26,50
9052,5;26,50
9056,3;26,50
9060,0;26,50
9063,8;26,51
9067,5;26,52
9071,3;26,54
9075,0;26,55
9078,8;26,56
9082,5;26,56
9086,3;26,56
9090,0;26,55
9093,8;26,54
9097,5;26,52
9101,3;26,51
9105,0;26,50
9108,8;26,49
9112,5;26,49
9116,3;26,50
9120,0;26,50
9123,8;26,50
9127,5;26,50
9131,3;26,48
9135,0;26,46
9138,8;26,43
9142,5;26,41
9146,3;26,39
9150,0;26,38
9153,8;26,38
9157,5;26,38
9161,3;26,38
9165,0;26,39
9168,8;26,39
9172,5;26,38
9176,3;26,37
9180,0;26,37
9183,8;26,36
9187,5;26,37
9191,3;26,37
9195,0;26,39
9198,8;26,40
9202,5;26,42
9206,3;26,43
9210,0;26,44
9213,8;26,44
9217,5;26,45
9221,3;26,46
9225,0;26,47
9228,8;26,48
9232,5;26,50
9236,3;26,51
9240,0;26,51
9243,8;26,50
9247,5;26,48
9251,3;26,45
9255,0;26,41
9258,8;26,37
9262,5;26,33
9266,3;26,31
9270,0;26,30
9273,8;26,30
9277,5;26,32
9281,3;26,34
9285,0;26,37
9288,8;26,39
9292,5;26,41
9296,3;26,42
9300,0;26,41
9303,8;26,41
9307,5;26,40
9311,3;26,38
9315,0;26,38
9318,8;26,37
9322,5;26,36
9326,3;26,36
9330,0;26,36
9333,8;26,36
9337,5;26,36
9341,3;26,36
9345,0;26,35
9348,8;26,35
9352,5;26,35
9356,3;26,35
9360,0;26,35
9363,8;26,35
9367,5;26,35
9371,3;26,36
9375,0;26,36
9378,8;26,37
9382,5;26,38
9386,3;26,40
9390,0;26,41
9393,8;26,43
9397,5;26,46
9401,3;26,48
9405,0;26,49
9408,8;26,51
9412,5;26,52
9416,3;26,52
9420,0;26,51
9423,8;26,50
9427,5;26,49
9431,3;26,48
9435,0;26,47
9438,8;26,46
9442,5;26,46
9446,3;26,46
9450,0;26,47
9453,8;26,47
9457,5;26,47
9461,3;26,46
9465,0;26,46
9468,8;26,44
9472,5;26,43
9476,3;26,42
9480,0;26,41
9483,8;26,41
9487,5;26,40
9491,3;26,40
9495,0;26,40
9498,8;26,40
9502,5;26,38
9506,3;26,37
9510,0;26,35
9513,8;26,33
9517,5;26,30
9521,3;26,28
9525,0;26,27
9528,8;26,26
9532,5;26,25
9536,3;26,25
9540,0;26,26
9543,8;26,26
9547,5;26,27
9551,3;26,29
9555,0;26,30
9558,8;26,32
9562,5;26,33
9566,3;26,34
9570,0;26,35
9573,8;26,36
9577,5;26,37
9581,3;26,38
9585,0;26,38
9588,8;26,38
9592,5;26,38
9596,3;26,39
9600,0;26,39
9603,8;26,39
9607,5;26,40
9611,3;26,40
9615,0;26,40
9618,8;26,40
9622,5;26,39
9626,3;26,37
9630,0;26,35
9633,8;26,33
9637,5;26,31
9641,3;26,28
9645,0;26,26
9648,8;26,25
9652,5;26,24
9656,3;26,23
9660,0;26,24
9663,8;26,25
9667,5;26,26
9671,3;26,28
9675,0;26,29
9678,8;26,30
9682,5;26,30
9686,3;26,30
9690,0;26,29
9693,8;26,28
9697,5;26,27
9701,3;26,26
9705,0;26,26
9708,8;26,27
9712,5;26,28
9716,3;26,30
9720,0;26,32
9723,8;26,35
9727,5;26,37
9731,3;26,39
9735,0;26,42
9738,8;26,43
9742,5;26,45
9746,3;26,46
9750,0;26,47
9753,8;26,48
9757,5;26,48
9761,3;26,49
9765,0;26,48
9768,8;26,48
9772,5;26,47
9776,3;26,46
9780,0;26,45
9783,8;26,44
9787,5;26,43
9791,3;26,43
9795,0;26,43
9798,8;26,43
9802,5;26,43
9806,3;26,43
9810,0;26,43
9813,8;26,43
9817,5;26,43
9821,3;26,42
9825,0;26,42
9828,8;26,41
9832,5;26,40
9836,3;26,39
9840,0;26,39
9843,8;26,39
9847,5;26,39
9851,3;26,40
9855,0;26,40
9858,8;26,41
9862,5;26,41
9866,3;26,42
9870,0;26,42
9873,8;26,43
9877,5;26,43
9881,3;26,43
9885,0;26,43
9888,8;26,43
9892,5;26,42
9896,3;26,42
9900,0;26,41
9903,8;26,39
9907,5;26,38
9911,3;26,36
9915,0;26,34
9918,8;26,33
9922,5;26,32
9926,3;26,32
9930,0;26,32
9933,8;26,33
9937,5;26,35
9941,3;26,37
9945,0;26,40
9948,8;26,43
9952,5;26,45
9956,3;26,48
9960,0;26,50
9963,8;26,52
9967,5;26,53
9971,3;26,54
9975,0;26,55
9978,8;26,55
9982,5;26,55
9986,3;26,55
9990,0;26,55
9993,8;26,55
9997,5;26,54
10001,3;26,53
10005,0;26,52
10008,8;26,51
10012,5;26,50
10016,3;26,49
10020,0;26,48
10023,8;26,47
10027,5;26,47
10031,3;26,47
10035,0;26,48
10038,8;26,48
10042,5;26,49
10046,3;26,50
10050,0;26,51
10053,8;26,52
10057,5;26,52
10061,3;26,53
10065,0;26,54
10068,8;26,54
10072,5;26,54
10076,3;26,54
10080,0;26,54
10083,8;26,53
10087,5;26,52
10091,3;26,50
10095,0;26,49
10098,8;26,47
10102,5;26,46
10106,3;26,44
10110,0;26,43
10113,8;26,42
10117,5;26,42
10121,3;26,42
10125,0;26,42
10128,8;26,42
10132,5;26,43
10136,3;26,43
10140,0;26,43
10143,8;26,42
10147,5;26,42
10151,3;26,41
10155,0;26,39
10158,8;26,39
10162,5;26,38
10166,3;26,37
10170,0;26,37
10173,8;26,38
10177,5;26,38
10181,3;26,39
10185,0;26,40
10188,8;26,41
10192,5;26,41
10196,3;26,42
10200,0;26,42
10203,8;26,41
10207,5;26,41
10211,3;26,40
10215,0;26,40
10218,8;26,39
10222,5;26,39
10226,3;26,39
10230,0;26,39
10233,8;26,40
10237,5;26,40
10241,3;26,41
10245,0;26,41
10248,8;26,42
10252,5;26,41
10256,3;26,41
10260,0;26,41
10263,8;26,40
10267,5;26,39
10271,3;26,38
10275,0;26,37
10278,8;26,36
10282,5;26,35
10286,3;26,35
10290,0;26,34
10293,8;26,33
10297,5;26,33
10301,3;26,32
10305,0;26,31
10308,8;26,30
10312,5;26,29
10316,3;26,28
10320,0;26,27
10323,8;26,26
10327,5;26,26
10331,3;26,25
10335,0;26,25
10338,8;26,25
10342,5;26,26
10346,3;26,26
10350,0;26,27
10353,8;26,28
10357,5;26,30
10361,3;26,32
10365,0;26,34
10368,8;26,36
10372,5;26,38
10376,3;26,40
10380,0;26,42
10383,8;26,44
10387,5;26,46
10391,3;26,46
10395,0;26,46
10398,8;26,46
10402,5;26,44
10406,3;26,42
10410,0;26,40
10413,8;26,38
10417,5;26,35
10421,3;26,33
10425,0;26,32
10428,8;26,31
10432,5;26,30
10436,3;26,30
10440,0;26,30
10443,8;26,31
10447,5;26,31
10451,3;26,32
10455,0;26,32
10458,8;26,32
10462,5;26,32
10466,3;26,32
10470,0;26,31
10473,8;26,30
10477,5;26,30
10481,3;26,29
10485,0;26,28
10488,8;26,28
10492,5;26,27
10496,3;26,27
10500,0;26,26
10503,8;26,26
10507,5;26,26
10511,3;26,26
10515,0;26,26
10518,8;26,26
10522,5;26,26
10526,3;26,26
10530,0;26,27
10533,8;26,28
10537,5;26,29
10541,3;26,30
10545,0;26,32
10548,8;26,33
10552,5;26,35
10556,3;26,36
10560,0;26,37
10563,8;26,38
10567,5;26,38
10571,3;26,38
10575,0;26,38
10578,8;26,37
10582,5;26,37
10586,3;26,36
10590,0;26,36
10593,8;26,36
10597,5;26,35
10601,3;26,35
10605,0;26,36
10608,8;26,36
10612,5;26,36
10616,3;26,36
10620,0;26,35
10623,8;26,35
10627,5;26,34
10631,3;26,33
10635,0;26,32
10638,8;26,31
10642,5;26,29
10646,3;26,28
10650,0;26,27
10653,8;26,26
10657,5;26,25
10661,3;26,24
10665,0;26,23
10668,8;26,22
10672,5;26,22
10676,3;26,22
10680,0;26,21
10683,8;26,22
10687,5;26,22
10691,3;26,23
10695,0;26,23
10698,8;26,24
10702,5;26,25
10706,3;26,26
10710,0;26,27
10713,8;26,28
10717,5;26,29
10721,3;26,29
10725,0;26,29
10728,8;26,29
10732,5;26,29
10736,3;26,29
10740,0;26,28
10743,8;26,27
10747,5;26,27
10751,3;26,26
10755,0;26,26
10758,8;26,26
10762,5;26,26
10766,3;26,26
10770,0;26,27
10773,8;26,27
10777,5;26,28
10781,3;26,29
10785,0;26,30
10788,8;26,31
10792,5;26,32
10796,3;26,33
10800,0;26,34
10803,8;26,34
10807,5;26,34
10811,3;26,34
10815,0;26,34
10818,8;26,34
10822,5;26,33
10826,3;26,32
10830,0;26,31
10833,8;26,29
10837,5;26,28
10841,3;26,26
10845,0;26,24
10848,8;26,22
10852,5;26,20
10856,3;26,18
10860,0;26,16
10863,8;26,14
10867,5;26,13
10871,3;26,11
10875,0;26,10
10878,8;26,09
10882,5;26,08
10886,3;26,07
10890,0;26,07
10893,8;26,07
10897,5;26,07
10901,3;26,07
10905,0;26,07
10908,8;26,07
10912,5;26,07
10916,3;26,07
10920,0;26,07
10923,8;26,07
10927,5;26,07
10931,3;26,08
10935,0;26,08
10938,8;26,09
10942,5;26,09
10946,3;26,09
10950,0;26,10
10953,8;26,10
10957,5;26,10
10961,3;26,10
10965,0;26,10
10968,8;26,10
10972,5;26,09
10976,3;26,09
10980,0;26,08
10983,8;26,07
10987,5;26,07
10991,3;26,06
10995,0;26,06
10998,8;26,05
11002,5;26,05
11006,3;26,04
11010,0;26,04
11013,8;26,04
11017,5;26,04
11021,3;26,04
11025,0;26,04
11028,8;26,04
11032,5;26,04
11036,3;26,04
11040,0;26,04
11043,8;26,04
11047,5;26,05
11051,3;26,05
11055,0;26,06
11058,8;26,06
11062,5;26,07
11066,3;26,08
11070,0;26,10
11073,8;26,11
11077,5;26,12
11081,3;26,13
11085,0;26,14
11088,8;26,14
11092,5;26,14
11096,3;26,14
11100,0;26,14
11103,8;26,13
11107,5;26,13
11111,3;26,12
11115,0;26,11
11118,8;26,09
11122,5;26,08
11126,3;26,07
11130,0;26,06
11133,8;26,05
11137,5;26,04
11141,3;26,03
11145,0;26,02
11148,8;26,00
11152,5;25,99
11156,3;25,98
11160,0;25,97
11163,8;25,97
11167,5;25,97
11171,3;25,97
11175,0;25,97
11178,8;25,98
11182,5;25,99
11186,3;26,00
11190,0;26,01
11193,8;26,01
11197,5;26,02
11201,3;26,02
11205,0;26,02
11208,8;26,02
11212,5;26,01
11216,3;26,00
11220,0;26,00
11223,8;25,99
11227,5;25,98
11231,3;25,98
11235,0;25,98
11238,8;25,98
11242,5;25,99
11246,3;26,00
11250,0;26,02
11253,8;26,03
11257,5;26,05
11261,3;26,07
11265,0;26,09
11268,8;26,11
11272,5;26,12
11276,3;26,14
11280,0;26,14
11283,8;26,15
11287,5;26,15
11291,3;26,15
11295,0;26,14
11298,8;26,13
11302,5;26,12
11306,3;26,10
11310,0;26,08
11313,8;26,06
11317,5;26,04
11321,3;26,03
11325,0;26,01
11328,8;26,00
11332,5;26,00
11336,3;26,00
11340,0;26,01
11343,8;26,01
11347,5;26,03
11351,3;26,05
11355,0;26,07
11358,8;26,09
11362,5;26,12
11366,3;26,14
11370,0;26,16
11373,8;26,18
11377,5;26,19
11381,3;26,20
11385,0;26,20
11388,8;26,20
11392,5;26,19
11396,3;26,18
11400,0;26,17
11403,8;26,15
11407,5;26,13
11411,3;26,10
11415,0;26,08
11418,8;26,06
11422,5;26,04
11426,3;26,03
11430,0;26,02
11433,8;26,01
11437,5;26,01
11441,3;26,01
11445,0;26,01
11448,8;26,02
11452,5;26,03
11456,3;26,03
11460,0;26,04
11463,8;26,05
11467,5;26,06
11471,3;26,07
11475,0;26,08
11478,8;26,08
11482,5;26,09
11486,3;26,09
11490,0;26,10
11493,8;26,10
11497,5;26,10
11501,3;26,11
11505,0;26,11
11508,8;26,11
11512,5;26,12
11516,3;26,12
11520,0;26,12
11523,8;26,12
11527,5;26,13
11531,3;26,12
11535,0;26,12
11538,8;26,12
11542,5;26,12
11546,3;26,12
11550,0;26,12
11553,8;26,13
11557,5;26,13
11561,3;26,14
11565,0;26,15
11568,8;26,17
11572,5;26,18
11576,3;26,20
11580,0;26,22
11583,8;26,24
11587,5;26,26
11591,3;26,27
11595,0;26,29
11598,8;26,30
11602,5;26,30
11606,3;26,31
11610,0;26,30
11613,8;26,30
11617,5;26,29
11621,3;26,28
11625,0;26,27
11628,8;26,26
11632,5;26,25
11636,3;26,24
11640,0;26,23
11643,8;26,22
11647,5;26,22
11651,3;26,21
11655,0;26,21
11658,8;26,22
11662,5;26,22
11666,3;26,23
11670,0;26,24
11673,8;26,25
11677,5;26,27
11681,3;26,28
11685,0;26,30
11688,8;26,32
11692,5;26,33
11696,3;26,35
11700,0;26,36
11703,8;26,37
11707,5;26,38
11711,3;26,39
11715,0;26,39
11718,8;26,40
11722,5;26,40
11726,3;26,40
11730,0;26,40
11733,8;26,39
11737,5;26,39
11741,3;26,40
11745,0;26,40
11748,8;26,40
11752,5;26,41
11756,3;26,42
11760,0;26,42
11763,8;26,43
11767,5;26,44
11771,3;26,44
11775,0;26,44
11778,8;26,44
11782,5;26,44
11786,3;26,44
11790,0;26,43
11793,8;26,42
11797,5;26,41
11801,3;26,40
11805,0;26,40
11808,8;26,39
11812,5;26,38
11816,3;26,38
11820,0;26,37
11823,8;26,37
11827,5;26,37
11831,3;26,37
11835,0;26,37
11838,8;26,37
11842,5;26,37
11846,3;26,37
11850,0;26,37
11853,8;26,37
11857,5;26,37
11861,3;26,37
11865,0;26,37
11868,8;26,37
11872,5;26,38
11876,3;26,38
11880,0;26,38
11883,8;26,38
11887,5;26,38
11891,3;26,38
11895,0;26,38
11898,8;26,38
11902,5;26,38
11906,3;26,37
11910,0;26,37
11913,8;26,37
11917,5;26,37
11921,3;26,37
11925,0;26,37
11928,8;26,37
11932,5;26,37
11936,3;26,37
11940,0;26,37
11943,8;26,37
11947,5;26,37
11951,3;26,37
11955,0;26,37
11958,8;26,37
11962,5;26,37
11966,3;26,38
11970,0;26,38
11973,8;26,39
11977,5;26,40
11981,3;26,41
11985,0;26,42
11988,8;26,43
11992,5;26,43
11996,3;26,44
12000,0;26,44
12003,8;26,44
12007,5;26,44
12011,3;26,43
12015,0;26,42
12018,8;26,41
12022,5;26,40
12026,3;26,38
12030,0;26,37
12033,8;26,35
12037,5;26,34
12041,3;26,33
12045,0;26,32
12048,8;26,31
12052,5;26,30
12056,3;26,30
12060,0;26,29
12063,8;26,29
12067,5;26,28
12071,3;26,28
12075,0;26,28
12078,8;26,28
12082,5;26,28
12086,3;26,28
12090,0;26,29
12093,8;26,30
12097,5;26,31
12101,3;26,32
12105,0;26,33
12108,8;26,34
12112,5;26,34
12116,3;26,35
12120,0;26,35
12123,8;26,35
12127,5;26,35
12131,3;26,34
12135,0;26,33
12138,8;26,31
12142,5;26,30
12146,3;26,28
12150,0;26,26
12153,8;26,24
12157,5;26,22
12161,3;26,21
12165,0;26,19
12168,8;26,18
12172,5;26,18
12176,3;26,17
12180,0;26,17
12183,8;26,18
12187,5;26,19
12191,3;26,20
12195,0;26,21
12198,8;26,22
12202,5;26,24
12206,3;26,25
12210,0;26,27
12213,8;26,28
12217,5;26,30
12221,3;26,31
12225,0;26,33
12228,8;26,34
12232,5;26,35
12236,3;26,36
12240,0;26,36
12243,8;26,37
12247,5;26,37
12251,3;26,37
12255,0;26,36
12258,8;26,36
12262,5;26,35
12266,3;26,34
12270,0;26,33
12273,8;26,32
12277,5;26,31
12281,3;26,31
12285,0;26,30
12288,8;26,30
12292,5;26,30
12296,3;26,30
12300,0;26,31
12303,8;26,32
12307,5;26,33
12311,3;26,34
12315,0;26,36
12318,8;26,37
12322,5;26,39
12326,3;26,40
12330,0;26,42
12333,8;26,43
12337,5;26,44
12341,3;26,45
12345,0;26,46
12348,8;26,46
12352,5;26,46
12356,3;26,46
12360,0;26,46
12363,8;26,45
12367,5;26,45
12371,3;26,45
12375,0;26,45
12378,8;26,45
12382,5;26,45
12386,3;26,46
12390,0;26,47
12393,8;26,48
12397,5;26,49
12401,3;26,50
12405,0;26,52
12408,8;26,54
12412,5;26,55
12416,3;26,56
12420,0;26,57
12423,8;26,58
12427,5;26,58
12431,3;26,58
12435,0;26,58
12438,8;26,58
12442,5;26,57
12446,3;26,57
12450,0;26,56
12453,8;26,56
12457,5;26,56
12461,3;26,55
12465,0;26,55
12468,8;26,56
12472,5;26,56
12476,3;26,56
12480,0;26,56
12483,8;26,57
12487,5;26,57
12491,3;26,57
12495,0;26,57
12498,8;26,57
12502,5;26,56
12506,3;26,56
12510,0;26,55
12513,8;26,54
12517,5;26,53
12521,3;26,52
12525,0;26,51
12528,8;26,50
12532,5;26,49
12536,3;26,49
12540,0;26,48
12543,8;26,48
12547,5;26,48
12551,3;26,47
12555,0;26,47
12558,8;26,47
12562,5;26,48
12566,3;26,48
12570,0;26,48
12573,8;26,48
12577,5;26,49
12581,3;26,49
12585,0;26,49
12588,8;26,50
12592,5;26,50
12596,3;26,51
12600,0;26,51
12603,8;26,51
12607,5;26,52
12611,3;26,52
12615,0;26,53
12618,8;26,53
12622,5;26,53
12626,3;26,53
12630,0;26,54
12633,8;26,54
12637,5;26,54
12641,3;26,55
12645,0;26,55
12648,8;26,56
12652,5;26,56
12656,3;26,57
12660,0;26,57
12663,8;26,58
12667,5;26,58
12671,3;26,58
12675,0;26,58
12678,8;26,58
12682,5;26,58
12686,3;26,58
12690,0;26,57
12693,8;26,56
12697,5;26,55
12701,3;26,54
12705,0;26,52
12708,8;26,51
12712,5;26,49
12716,3;26,48
12720,0;26,47
12723,8;26,46
12727,5;26,45
12731,3;26,45
12735,0;26,45
12738,8;26,45
12742,5;26,46
12746,3;26,47
12750,0;26,48
12753,8;26,49
12757,5;26,50
12761,3;26,52
12765,0;26,53
12768,8;26,54
12772,5;26,55
12776,3;26,56
12780,0;26,56
12783,8;26,56
12787,5;26,56
12791,3;26,56
12795,0;26,56
12798,8;26,55
12802,5;26,54
12806,3;26,53
12810,0;26,53
12813,8;26,52
12817,5;26,52
12821,3;26,51
12825,0;26,51
12828,8;26,51
12832,5;26,51
12836,3;26,52
12840,0;26,53
12843,8;26,53
12847,5;26,54
12851,3;26,55
12855,0;26,56
12858,8;26,57
12862,5;26,58
12866,3;26,59
12870,0;26,60
12873,8;26,60
12877,5;26,60
12881,3;26,60
12885,0;26,60
12888,8;26,60
12892,5;26,60
12896,3;26,60
12900,0;26,59
12903,8;26,59
12907,5;26,58
12911,3;26,58
12915,0;26,57
12918,8;26,57
12922,5;26,56
12926,3;26,55
12930,0;26,55
12933,8;26,54
12937,5;26,53
12941,3;26,52
12945,0;26,51
12948,8;26,50
12952,5;26,49
12956,3;26,48
12960,0;26,47
12963,8;26,46
12967,5;26,45
12971,3;26,44
12975,0;26,43
12978,8;26,43
12982,5;26,43
12986,3;26,43
12990,0;26,43
12993,8;26,44
12997,5;26,44
13001,3;26,45
13005,0;26,46
13008,8;26,47
13012,5;26,47
13016,3;26,48
13020,0;26,49
13023,8;26,49
13027,5;26,49
13031,3;26,50
13035,0;26,50
13038,8;26,49
13042,5;26,49
13046,3;26,49
13050,0;26,49
13053,8;26,49
13057,5;26,49
13061,3;26,49
13065,0;26,49
13068,8;26,50
13072,5;26,50
13076,3;26,51
13080,0;26,52
13083,8;26,52
13087,5;26,53
13091,3;26,54
13095,0;26,55
13098,8;26,55
13102,5;26,55
13106,3;26,56
13110,0;26,56
13113,8;26,55
13117,5;26,55
13121,3;26,54
13125,0;26,54
13128,8;26,53
13132,5;26,52
13136,3;26,51
13140,0;26,50
13143,8;26,49
13147,5;26,49
13151,3;26,48
13155,0;26,48
13158,8;26,48
13162,5;26,47
13166,3;26,48
13170,0;26,48
13173,8;26,49
13177,5;26,50
13181,3;26,50
13185,0;26,51
13188,8;26,52
13192,5;26,53
13196,3;26,54
13200,0;26,55
13203,8;26,56
13207,5;26,57
13211,3;26,57
13215,0;26,57
13218,8;26,58
13222,5;26,58
13226,3;26,58
13230,0;26,58
13233,8;26,58
13237,5;26,58
13241,3;26,58
13245,0;26,58
13248,8;26,58
13252,5;26,58
13256,3;26,58
13260,0;26,58
13263,8;26,58
13267,5;26,59
13271,3;26,59
13275,0;26,59
13278,8;26,59
13282,5;26,59
13286,3;26,59
13290,0;26,59
13293,8;26,59
13297,5;26,58
13301,3;26,58
13305,0;26,57
13308,8;26,57
13312,5;26,56
13316,3;26,55
13320,0;26,54
13323,8;26,53
13327,5;26,52
13331,3;26,51
13335,0;26,51
13338,8;26,50
13342,5;26,49
13346,3;26,49
13350,0;26,48
13353,8;26,48
13357,5;26,47
13361,3;26,47
13365,0;26,46
13368,8;26,46
13372,5;26,46
13376,3;26,45
13380,0;26,45
13383,8;26,44
13387,5;26,44
13391,3;26,44
13395,0;26,43
13398,8;26,43
13402,5;26,43
13406,3;26,43
13410,0;26,43
13413,8;26,42
13417,5;26,42
13421,3;26,42
13425,0;26,42
13428,8;26,42
13432,5;26,42
13436,3;26,41
13440,0;26,41
13443,8;26,41
13447,5;26,40
13451,3;26,40
13455,0;26,39
13458,8;26,39
13462,5;26,38
13466,3;26,38
13470,0;26,38
13473,8;26,37
13477,5;26,37
13481,3;26,37
13485,0;26,37
13488,8;26,37
13492,5;26,38
13496,3;26,38
13500,0;26,38
13503,8;26,38
13507,5;26,39
13511,3;26,39
13515,0;26,39
13518,8;26,39
13522,5;26,39
13526,3;26,39
13530,0;26,39
13533,8;26,39
13537,5;26,38
13541,3;26,38
13545,0;26,38
13548,8;26,38
13552,5;26,38
13556,3;26,38
13560,0;26,39
13563,8;26,39
13567,5;26,40
13571,3;26,41
13575,0;26,42
13578,8;26,43
13582,5;26,44
13586,3;26,46
13590,0;26,47
13593,8;26,48
13597,5;26,50
13601,3;26,51
13605,0;26,52
13608,8;26,53
13612,5;26,53
13616,3;26,54
13620,0;26,54
13623,8;26,54
13627,5;26,54
13631,3;26,54
13635,0;26,54
13638,8;26,54
13642,5;26,54
13646,3;26,54
13650,0;26,54
13653,8;26,55
13657,5;26,55
13661,3;26,55
13665,0;26,56
13668,8;26,56
13672,5;26,57
13676,3;26,57
13680,0;26,58
13683,8;26,58
13687,5;26,59
13691,3;26,59
13695,0;26,60
13698,8;26,60
13702,5;26,61
13706,3;26,61
13710,0;26,62
13713,8;26,62
13717,5;26,63
13721,3;26,63
13725,0;26,64
13728,8;26,65
13732,5;26,66
13736,3;26,67
13740,0;26,68
13743,8;26,69
13747,5;26,70
13751,3;26,71
13755,0;26,73
13758,8;26,74
13762,5;26,75
13766,3;26,76
13770,0;26,76
13773,8;26,77
13777,5;26,78
13781,3;26,78
13785,0;26,78
13788,8;26,77
13792,5;26,77
13796,3;26,76
13800,0;26,75
13803,8;26,75
13807,5;26,74
13811,3;26,73
13815,0;26,72
13818,8;26,72
13822,5;26,71
13826,3;26,71
13830,0;26,71
13833,8;26,72
13837,5;26,73
13841,3;26,74
13845,0;26,75
13848,8;26,77
13852,5;26,79
13856,3;26,81
13860,0;26,83
13863,8;26,85
13867,5;26,87
13871,3;26,90
13875,0;26,92
13878,8;26,94
13882,5;26,96
13886,3;26,98
13890,0;26,99
13893,8;27,01
13897,5;27,02
13901,3;27,03
13905,0;27,03
13908,8;27,04
13912,5;27,04
13916,3;27,04
13920,0;27,04
13923,8;27,04
13927,5;27,04
13931,3;27,04
13935,0;27,04
13938,8;27,04
13942,5;27,04
13946,3;27,04
13950,0;27,04
13953,8;27,04
13957,5;27,05
13961,3;27,05
13965,0;27,06
13968,8;27,06
13972,5;27,07
13976,3;27,08
13980,0;27,08
13983,8;27,09
13987,5;27,09
13991,3;27,10
13995,0;27,11
13998,8;27,11
14002,5;27,12
14006,3;27,13
14010,0;27,13
14013,8;27,14
14017,5;27,15
14021,3;27,16
14025,0;27,16
14028,8;27,17
14032,5;27,18
14036,3;27,19
14040,0;27,21
14043,8;27,22
14047,5;27,23
14051,3;27,24
14055,0;27,26
14058,8;27,27
14062,5;27,28
14066,3;27,30
14070,0;27,31
14073,8;27,32
14077,5;27,32
14081,3;27,33
14085,0;27,34
14088,8;27,35
14092,5;27,35
14096,3;27,36
14100,0;27,36
14103,8;27,36
14107,5;27,37
14111,3;27,37
14115,0;27,38
14118,8;27,38
14122,5;27,39
14126,3;27,40
14130,0;27,41
14133,8;27,42
14137,5;27,43
14141,3;27,44
14145,0;27,46
14148,8;27,47
14152,5;27,48
14156,3;27,50
14160,0;27,51
14163,8;27,52
14167,5;27,53
14171,3;27,53
14175,0;27,54
14178,8;27,54
14182,5;27,54
14186,3;27,53
14190,0;27,53
14193,8;27,53
14197,5;27,52
14201,3;27,51
14205,0;27,50
14208,8;27,49
14212,5;27,49
14216,3;27,48
14220,0;27,48
14223,8;27,47
14227,5;27,47
14231,3;27,47
14235,0;27,48
14238,8;27,49
14242,5;27,49
14246,3;27,50
14250,0;27,51
14253,8;27,52
14257,5;27,54
14261,3;27,55
14265,0;27,56
14268,8;27,57
14272,5;27,57
14276,3;27,58
14280,0;27,58
14283,8;27,58
14287,5;27,58
14291,3;27,58
14295,0;27,57
14298,8;27,56
14302,5;27,56
14306,3;27,55
14310,0;27,54
14313,8;27,53
14317,5;27,52
14321,3;27,52
14325,0;27,51
14328,8;27,51
14332,5;27,50
14336,3;27,51
14340,0;27,51
14343,8;27,51
14347,5;27,52
14351,3;27,53
14355,0;27,54
14358,8;27,55
14362,5;27,56
14366,3;27,57
14370,0;27,59
14373,8;27,60
14377,5;27,61
14381,3;27,62
14385,0;27,64
14388,8;27,65
14392,5;27,66
14396,3;27,67
14400,0;27,68
14403,8;27,68
14407,5;27,69
14411,3;27,70
14415,0;27,71
14418,8;27,71
14422,5;27,72
14426,3;27,73
14430,0;27,73
14433,8;27,74
14437,5;27,74
14441,3;27,75
14445,0;27,76
14448,8;27,76
14452,5;27,77
14456,3;27,77
14460,0;27,77
14463,8;27,77
14467,5;27,77
14471,3;27,77
14475,0;27,77
14478,8;27,77
14482,5;27,76
14486,3;27,76
14490,0;27,75
14493,8;27,74
14497,5;27,73
14501,3;27,72
14505,0;27,72
14508,8;27,71
14512,5;27,70
14516,3;27,69
14520,0;27,68
14523,8;27,68
14527,5;27,67
14531,3;27,67
14535,0;27,67
14538,8;27,67
14542,5;27,66
14546,3;27,66
14550,0;27,66
14553,8;27,66
14557,5;27,66
14561,3;27,66
14565,0;27,66
14568,8;27,65
14572,5;27,65
14576,3;27,64
14580,0;27,63
14583,8;27,62
14587,5;27,62
14591,3;27,60
14595,0;27,59
14598,8;27,58
14602,5;27,57
14606,3;27,56
14610,0;27,56
14613,8;27,55
14617,5;27,55
14621,3;27,54
14625,0;27,54
14628,8;27,55
14632,5;27,56
14636,3;27,57
14640,0;27,59
14643,8;27,60
14647,5;27,62
14651,3;27,64
14655,0;27,66
14658,8;27,69
14662,5;27,72
14666,3;27,74
14670,0;27,76
14673,8;27,79
14677,5;27,81
14681,3;27,83
14685,0;27,85
14688,8;27,86
14692,5;27,88
14696,3;27,89
14700,0;27,90
14703,8;27,90
14707,5;27,91
14711,3;27,91
14715,0;27,92
14718,8;27,92
14722,5;27,93
14726,3;27,93
14730,0;27,93
14733,8;27,93
14737,5;27,93
14741,3;27,93
14745,0;27,94
14748,8;27,94
14752,5;27,94
14756,3;27,94
14760,0;27,94
14763,8;27,94
14767,5;27,94
14771,3;27,93
14775,0;27,93
14778,8;27,93
14782,5;27,92
14786,3;27,91
14790,0;27,90
14793,8;27,89
14797,5;27,88
14801,3;27,88
14805,0;27,87
14808,8;27,86
14812,5;27,85
14816,3;27,84
14820,0;27,84
14823,8;27,84
14827,5;27,84
14831,3;27,84
14835,0;27,85
14838,8;27,86
14842,5;27,87
14846,3;27,88
14850,0;27,89
14853,8;27,91
14857,5;27,93
14861,3;27,95
14865,0;27,97
14868,8;27,99
14872,5;28,01
14876,3;28,03
14880,0;28,05
14883,8;28,07
14887,5;28,09
14891,3;28,10
14895,0;28,11
14898,8;28,12
14902,5;28,13
14906,3;28,14
14910,0;28,14
14913,8;28,14
14917,5;28,13
14921,3;28,12
14925,0;28,11
14928,8;28,09
14932,5;28,06
14936,3;28,03
14940,0;28,00
14943,8;27,96
14947,5;27,91
14951,3;27,86
14955,0;27,82
14958,8;27,77
14962,5;27,71
14966,3;27,66
14970,0;27,60
14973,8;27,55
14977,5;27,50
14981,3;27,45
14985,0;27,40
14988,8;27,35
14992,5;27,30
14996,3;27,26
15000,0;27,22
15003,8;27,19
15007,5;27,16
15011,3;27,14
15015,0;27,12
15018,8;27,11
15022,5;27,11
15026,3;27,12
15030,0;27,14
15033,8;27,17
15037,5;27,20
15041,3;27,24
15045,0;27,28
15048,8;27,32
15052,5;27,36
15056,3;27,41
15060,0;27,46
15063,8;27,51
15067,5;27,55
15071,3;27,59
15075,0;27,63
15078,8;27,66
15082,5;27,69
15086,3;27,72
15090,0;27,74
15093,8;27,76
15097,5;27,78
15101,3;27,79
15105,0;27,80
15108,8;27,81
15112,5;27,82
15116,3;27,82
15120,0;27,83
15123,8;27,83
15127,5;27,83
15131,3;27,84
15135,0;27,84
15138,8;27,85
15142,5;27,85
15146,3;27,86
15150,0;27,87
15153,8;27,88
15157,5;27,89
15161,3;27,90
15165,0;27,91
15168,8;27,93
15172,5;27,94
15176,3;27,95
15180,0;27,96
15183,8;27,98
15187,5;27,99
15191,3;28,00
15195,0;28,00
15198,8;28,01
15202,5;28,02
15206,3;28,02
15210,0;28,01
15213,8;28,01
15217,5;28,00
15221,3;27,99
15225,0;27,98
15228,8;27,97
15232,5;27,96
15236,3;27,94
15240,0;27,92
15243,8;27,91
15247,5;27,89
15251,3;27,87
15255,0;27,86
15258,8;27,85
15262,5;27,84
15266,3;27,84
15270,0;27,83
15273,8;27,83
15277,5;27,84
15281,3;27,84
15285,0;27,86
15288,8;27,87
15292,5;27,89
15296,3;27,91
15300,0;27,93
15303,8;27,95
15307,5;27,98
15311,3;28,00
15315,0;28,03
15318,8;28,05
15322,5;28,07
15326,3;28,09
15330,0;28,11
15333,8;28,12
15337,5;28,14
15341,3;28,15
15345,0;28,15
15348,8;28,15
15352,5;28,15
15356,3;28,15
15360,0;28,14
15363,8;28,14
15367,5;28,13
15371,3;28,12
15375,0;28,12
15378,8;28,11
15382,5;28,10
15386,3;28,09
15390,0;28,08
15393,8;28,08
15397,5;28,07
15401,3;28,07
15405,0;28,07
15408,8;28,07
15412,5;28,07
15416,3;28,07
15420,0;28,07
15423,8;28,08
15427,5;28,08
15431,3;28,08
15435,0;28,09
15438,8;28,09
15442,5;28,09
15446,3;28,09
15450,0;28,09
15453,8;28,09
15457,5;28,09
15461,3;28,09
15465,0;28,09
15468,8;28,09
15472,5;28,08
15476,3;28,08
15480,0;28,08
15483,8;28,08
15487,5;28,08
15491,3;28,09
15495,0;28,09
15498,8;28,10
15502,5;28,10
15506,3;28,11
15510,0;28,12
15513,8;28,12
15517,5;28,13
15521,3;28,14
15525,0;28,15
15528,8;28,16
15532,5;28,17
15536,3;28,17
15540,0;28,17
15543,8;28,18
15547,5;28,18
15551,3;28,17
15555,0;28,17
15558,8;28,17
15562,5;28,16
15566,3;28,15
15570,0;28,14
15573,8;28,13
15577,5;28,12
15581,3;28,11
15585,0;28,10
15588,8;28,09
15592,5;28,08
15596,3;28,07
15600,0;28,06
15603,8;28,05
15607,5;28,05
15611,3;28,04
15615,0;28,04
15618,8;28,04
15622,5;28,04
15626,3;28,04
15630,0;28,05
15633,8;28,05
15637,5;28,05
15641,3;28,06
15645,0;28,06
15648,8;28,07
15652,5;28,07
15656,3;28,08
15660,0;28,08
15663,8;28,08
15667,5;28,08
15671,3;28,08
15675,0;28,08
15678,8;28,07
15682,5;28,07
15686,3;28,07
15690,0;28,07
15693,8;28,06
15697,5;28,05
15701,3;28,05
15705,0;28,05
15708,8;28,04
15712,5;28,04
15716,3;28,04
15720,0;28,04
15723,8;28,03
15727,5;28,03
15731,3;28,03
15735,0;28,03
15738,8;28,04
15742,5;28,04
15746,3;28,04
15750,0;28,04
15753,8;28,04
15757,5;28,04
15761,3;28,04
15765,0;28,04
15768,8;28,04
15772,5;28,04
15776,3;28,03
15780,0;28,03
15783,8;28,02
15787,5;28,01
15791,3;28,00
15795,0;27,99
15798,8;27,98
15802,5;27,96
15806,3;27,95
15810,0;27,94
15813,8;27,93
15817,5;27,91
15821,3;27,90
15825,0;27,89
15828,8;27,87
15832,5;27,86
15836,3;27,85
15840,0;27,84
15843,8;27,83
15847,5;27,82
15851,3;27,81
15855,0;27,80
15858,8;27,78
15862,5;27,77
15866,3;27,76
15870,0;27,74
15873,8;27,73
15877,5;27,71
15881,3;27,69
15885,0;27,66
15888,8;27,64
15892,5;27,61
15896,3;27,58
15900,0;27,54
15903,8;27,50
15907,5;27,46
15911,3;27,42
15915,0;27,37
15918,8;27,32
15922,5;27,27
15926,3;27,22
15930,0;27,16
15933,8;27,11
15937,5;27,06
15941,3;27,00
15945,0;26,95
15948,8;26,89
15952,5;26,84
15956,3;26,78
15960,0;26,73
15963,8;26,69
15967,5;26,64
15971,3;26,59
15975,0;26,55
15978,8;26,50
15982,5;26,46
15986,3;26,41
15990,0;26,37
15993,8;26,33
15997,5;26,29
16001,3;26,25
16005,0;26,21
16008,8;26,17
16012,5;26,12
16016,3;26,08
16020,0;26,04
16023,8;25,99
16027,5;25,95
16031,3;25,90
16035,0;25,86
16038,8;25,82
16042,5;25,77
16046,3;25,73
16050,0;25,68
16053,8;25,64
16057,5;25,60
16061,3;25,56
16065,0;25,52
16068,8;25,48
16072,5;25,45
16076,3;25,42
16080,0;25,39
16083,8;25,36
16087,5;25,34
16091,3;25,32
16095,0;25,30
16098,8;25,28
16102,5;25,27
16106,3;25,26
16110,0;25,25
16113,8;25,25
16117,5;25,24
16121,3;25,24
16125,0;25,24
16128,8;25,24
16132,5;25,25
16136,3;25,25
16140,0;25,25
16143,8;25,26
16147,5;25,27
16151,3;25,27
16155,0;25,28
16158,8;25,29
16162,5;25,30
16166,3;25,30
16170,0;25,31
16173,8;25,32
16177,5;25,33
16181,3;25,34
16185,0;25,35
16188,8;25,36
16192,5;25,37
16196,3;25,38
16200,0;25,40
16203,8;25,41
16207,5;25,42
16211,3;25,43
16215,0;25,44
16218,8;25,46
16222,5;25,47
16226,3;25,48
16230,0;25,49
16233,8;25,50
16237,5;25,51
16241,3;25,52
16245,0;25,53
16248,8;25,54
16252,5;25,54
16256,3;25,55
16260,0;25,55
16263,8;25,55
16267,5;25,55
16271,3;25,54
16275,0;25,53
16278,8;25,52
16282,5;25,51
16286,3;25,50
16290,0;25,48
16293,8;25,47
16297,5;25,45
16301,3;25,43
16305,0;25,40
16308,8;25,38
16312,5;25,35
16316,3;25,33
16320,0;25,30
16323,8;25,28
16327,5;25,25
16331,3;25,23
16335,0;25,20
16338,8;25,18
16342,5;25,16
16346,3;25,14
16350,0;25,12
16353,8;25,11
16357,5;25,10
16361,3;25,09
16365,0;25,08
16368,8;25,08
16372,5;25,08
16376,3;25,08
16380,0;25,08
16383,8;25,09
16387,5;25,10
16391,3;25,11
16395,0;25,12
16398,8;25,13
16402,5;25,15
16406,3;25,16
16410,0;25,18
16413,8;25,20
16417,5;25,22
16421,3;25,24
16425,0;25,25
16428,8;25,27
16432,5;25,29
16436,3;25,31
16440,0;25,33
16443,8;25,35
16447,5;25,37
16451,3;25,39
16455,0;25,41
16458,8;25,44
16462,5;25,46
16466,3;25,48
16470,0;25,50
16473,8;25,53
16477,5;25,55
16481,3;25,57
16485,0;25,60
16488,8;25,62
16492,5;25,65
16496,3;25,68
16500,0;25,70
16503,8;25,73
16507,5;25,75
16511,3;25,78
16515,0;25,80
16518,8;25,83
16522,5;25,85
16526,3;25,88
16530,0;25,90
16533,8;25,92
16537,5;25,94
16541,3;25,96
16545,0;25,97
16548,8;25,99
16552,5;26,00
16556,3;26,01
16560,0;26,03
16563,8;26,04
16567,5;26,05
16571,3;26,06
16575,0;26,07
16578,8;26,08
16582,5;26,09
16586,3;26,10
16590,0;26,11
16593,8;26,12
16597,5;26,14
16601,3;26,15
16605,0;26,17
16608,8;26,19
16612,5;26,21
16616,3;26,23
16620,0;26,25
16623,8;26,28
16627,5;26,31
16631,3;26,34
16635,0;26,37
16638,8;26,40
16642,5;26,43
16646,3;26,46
16650,0;26,49
16653,8;26,52
16657,5;26,55
16661,3;26,58
16665,0;26,61
16668,8;26,64
16672,5;26,67
16676,3;26,69
16680,0;26,72
16683,8;26,74
16687,5;26,76
16691,3;26,78
16695,0;26,79
16698,8;26,81
16702,5;26,82
16706,3;26,84
16710,0;26,85
16713,8;26,86
16717,5;26,87
16721,3;26,87
16725,0;26,88
16728,8;26,89
16732,5;26,90
16736,3;26,91
16740,0;26,93
16743,8;26,94
16747,5;26,95
16751,3;26,96
16755,0;26,98
16758,8;26,99
16762,5;27,01
16766,3;27,03
16770,0;27,05
16773,8;27,07
16777,5;27,09
16781,3;27,11
16785,0;27,13
16788,8;27,15
16792,5;27,17
16796,3;27,19
16800,0;27,21
16803,8;27,23
16807,5;27,25
16811,3;27,27
16815,0;27,28
16818,8;27,30
16822,5;27,31
16826,3;27,32
16830,0;27,33
16833,8;27,33
16837,5;27,34
16841,3;27,34
16845,0;27,35
16848,8;27,35
16852,5;27,36
16856,3;27,36
16860,0;27,36
16863,8;27,36
16867,5;27,36
16871,3;27,36
16875,0;27,37
16878,8;27,37
16882,5;27,38
16886,3;27,39
16890,0;27,39
16893,8;27,40
16897,5;27,41
16901,3;27,42
16905,0;27,44
16908,8;27,45
16912,5;27,47
16916,3;27,48
16920,0;27,50
16923,8;27,52
16927,5;27,54
16931,3;27,55
16935,0;27,57
16938,8;27,59
16942,5;27,61
16946,3;27,63
16950,0;27,64
16953,8;27,66
16957,5;27,68
16961,3;27,69
16965,0;27,71
16968,8;27,72
16972,5;27,74
16976,3;27,75
16980,0;27,77
16983,8;27,78
16987,5;27,79
16991,3;27,81
16995,0;27,82
16998,8;27,84
17002,5;27,85
17006,3;27,87
17010,0;27,88
17013,8;27,90
17017,5;27,91
17021,3;27,93
17025,0;27,94
17028,8;27,96
17032,5;27,98
17036,3;27,99
17040,0;28,01
17043,8;28,02
17047,5;28,04
17051,3;28,05
17055,0;28,06
17058,8;28,07
17062,5;28,08
17066,3;28,09
17070,0;28,09
17073,8;28,09
17077,5;28,09
17081,3;28,09
17085,0;28,09
17088,8;28,08
17092,5;28,07
17096,3;28,06
17100,0;28,05
17103,8;28,04
17107,5;28,03
17111,3;28,02
17115,0;28,00
17118,8;27,99
17122,5;27,97
17126,3;27,96
17130,0;27,95
17133,8;27,95
17137,5;27,94
17141,3;27,94
17145,0;27,94
17148,8;27,94
17152,5;27,94
17156,3;27,94
17160,0;27,95
17163,8;27,96
17167,5;27,97
17171,3;27,99
17175,0;28,01
17178,8;28,03
17182,5;28,05
17186,3;28,07
17190,0;28,09
17193,8;28,11
17197,5;28,13
17201,3;28,15
17205,0;28,17
17208,8;28,19
17212,5;28,21
17216,3;28,23
17220,0;28,24
17223,8;28,25
17227,5;28,26
17231,3;28,27
17235,0;28,27
17238,8;28,28
17242,5;28,28
17246,3;28,28
17250,0;28,28
17253,8;28,28
17257,5;28,28
17261,3;28,28
17265,0;28,28
17268,8;28,27
17272,5;28,27
17276,3;28,27
17280,0;28,27
17283,8;28,27
17287,5;28,28
17291,3;28,28
17295,0;28,29
17298,8;28,30
17302,5;28,31
17306,3;28,32
17310,0;28,33
17313,8;28,34
17317,5;28,36
17321,3;28,38
17325,0;28,39
17328,8;28,41
17332,5;28,43
17336,3;28,45
17340,0;28,46
17343,8;28,47
17347,5;28,48
17351,3;28,50
17355,0;28,51
17358,8;28,51
17362,5;28,52
17366,3;28,53
17370,0;28,53
17373,8;28,53
17377,5;28,52
17381,3;28,52
17385,0;28,51
17388,8;28,50
17392,5;28,49
17396,3;28,47
17400,0;28,46
17403,8;28,45
17407,5;28,44
17411,3;28,43
17415,0;28,41
17418,8;28,40
17422,5;28,39
17426,3;28,37
17430,0;28,37
17433,8;28,36
17437,5;28,35
17441,3;28,35
17445,0;28,35
17448,8;28,34
17452,5;28,34
17456,3;28,34
17460,0;28,35
17463,8;28,35
17467,5;28,35
17471,3;28,36
17475,0;28,36
17478,8;28,37
17482,5;28,37
17486,3;28,38
17490,0;28,38
17493,8;28,38
17497,5;28,39
17501,3;28,39
17505,0;28,38
17508,8;28,38
17512,5;28,38
17516,3;28,38
17520,0;28,37
17523,8;28,36
17527,5;28,36
17531,3;28,34
17535,0;28,33
17538,8;28,32
17542,5;28,30
17546,3;28,29
17550,0;28,28
17553,8;28,26
17557,5;28,25
17561,3;28,24
17565,0;28,22
17568,8;28,21
17572,5;28,19
17576,3;28,18
17580,0;28,17
17583,8;28,16
17587,5;28,15
17591,3;28,15
17595,0;28,14
17598,8;28,14
17602,5;28,14
17606,3;28,13
17610,0;28,13
17613,8;28,13
17617,5;28,13
17621,3;28,13
17625,0;28,14
17628,8;28,14
17632,5;28,14
17636,3;28,15
17640,0;28,15
17643,8;28,16
17647,5;28,16
17651,3;28,16
17655,0;28,16
17658,8;28,16
17662,5;28,16
17666,3;28,17
17670,0;28,17
17673,8;28,17
17677,5;28,17
17681,3;28,17
17685,0;28,17
17688,8;28,17
17692,5;28,17
17696,3;28,17
17700,0;28,17
17703,8;28,17
17707,5;28,17
17711,3;28,18
17715,0;28,18
17718,8;28,19
17722,5;28,20
17726,3;28,21
17730,0;28,21
17733,8;28,23
17737,5;28,24
17741,3;28,25
17745,0;28,26
17748,8;28,28
17752,5;28,30
17756,3;28,32
17760,0;28,34
17763,8;28,36
17767,5;28,38
17771,3;28,40
17775,0;28,42
17778,8;28,44
17782,5;28,45
17786,3;28,47
17790,0;28,49
17793,8;28,51
17797,5;28,52
17801,3;28,54
17805,0;28,55
17808,8;28,55
17812,5;28,56
17816,3;28,56
17820,0;28,57
17823,8;28,57
17827,5;28,57
17831,3;28,56
17835,0;28,56
17838,8;28,56
17842,5;28,55
17846,3;28,54
17850,0;28,53
17853,8;28,52
17857,5;28,51
17861,3;28,50
17865,0;28,49
17868,8;28,48
17872,5;28,47
17876,3;28,46
17880,0;28,46
17883,8;28,45
17887,5;28,44
17891,3;28,44
17895,0;28,43
17898,8;28,43
17902,5;28,43
17906,3;28,44
17910,0;28,44
17913,8;28,45
17917,5;28,45
17921,3;28,46
17925,0;28,47
17928,8;28,47
17932,5;28,48
17936,3;28,49
17940,0;28,50
17943,8;28,51
17947,5;28,52
17951,3;28,53
17955,0;28,53
17958,8;28,54
17962,5;28,55
17966,3;28,56
17970,0;28,56
17973,8;28,57
17977,5;28,57
17981,3;28,57
17985,0;28,57
17988,8;28,58
17992,5;28,58
17996,3;28,58
18000,0;28,59
18003,8;28,59
18007,5;28,59
18011,3;28,59
18015,0;28,60
18018,8;28,60
18022,5;28,60
18026,3;28,61
18030,0;28,62
18033,8;28,62
18037,5;28,63
18041,3;28,65
18045,0;28,66
18048,8;28,67
18052,5;28,68
18056,3;28,70
18060,0;28,71
18063,8;28,72
18067,5;28,74
18071,3;28,76
18075,0;28,77
18078,8;28,79
18082,5;28,81
18086,3;28,82
18090,0;28,83
18093,8;28,85
18097,5;28,85
18101,3;28,86
18105,0;28,87
18108,8;28,87
18112,5;28,88
18116,3;28,88
18120,0;28,88
18123,8;28,88
18127,5;28,88
18131,3;28,88
18135,0;28,87
18138,8;28,86
18142,5;28,85
18146,3;28,84
18150,0;28,83
18153,8;28,82
18157,5;28,81
18161,3;28,80
18165,0;28,80
18168,8;28,79
18172,5;28,78
18176,3;28,78
18180,0;28,77
18183,8;28,76
18187,5;28,76
18191,3;28,76
18195,0;28,76
18198,8;28,77
18202,5;28,77
18206,3;28,78
18210,0;28,79
18213,8;28,80
18217,5;28,81
18221,3;28,82
18225,0;28,83
18228,8;28,84
18232,5;28,85
18236,3;28,86
18240,0;28,87
18243,8;28,89
18247,5;28,90
18251,3;28,91
18255,0;28,92
18258,8;28,92
18262,5;28,93
18266,3;28,93
18270,0;28,93
18273,8;28,93
18277,5;28,93
18281,3;28,92
18285,0;28,92
18288,8;28,91
18292,5;28,91
18296,3;28,90
18300,0;28,88
18303,8;28,87
18307,5;28,86
18311,3;28,84
18315,0;28,83
18318,8;28,81
18322,5;28,80
18326,3;28,79
18330,0;28,78
18333,8;28,77
18337,5;28,76
18341,3;28,75
18345,0;28,74
18348,8;28,74
18352,5;28,73
18356,3;28,73
18360,0;28,73
18363,8;28,73
18367,5;28,74
18371,3;28,74
18375,0;28,75
18378,8;28,76
18382,5;28,78
18386,3;28,79
18390,0;28,80
18393,8;28,81
18397,5;28,83
18401,3;28,84
18405,0;28,86
18408,8;28,87
18412,5;28,89
18416,3;28,91
18420,0;28,92
18423,8;28,94
18427,5;28,95
18431,3;28,96
18435,0;28,97
18438,8;28,97
18442,5;28,98
18446,3;28,99
18450,0;28,99
18453,8;29,00
18457,5;29,00
18461,3;29,00
18465,0;29,00
18468,8;29,00
18472,5;29,00
18476,3;29,00
18480,0;28,99
18483,8;28,99
18487,5;28,99
18491,3;28,99
18495,0;28,99
18498,8;28,99
18502,5;28,99
18506,3;28,99
18510,0;29,00
18513,8;29,00
18517,5;29,01
18521,3;29,01
18525,0;29,02
18528,8;29,03
18532,5;29,03
18536,3;29,05
18540,0;29,06
18543,8;29,07
18547,5;29,09
18551,3;29,10
18555,0;29,12
18558,8;29,13
18562,5;29,14
18566,3;29,16
18570,0;29,17
18573,8;29,18
18577,5;29,19
18581,3;29,20
18585,0;29,21
18588,8;29,22
18592,5;29,23
18596,3;29,23
18600,0;29,23
18603,8;29,23
18607,5;29,22
18611,3;29,22
18615,0;29,21
18618,8;29,20
18622,5;29,19
18626,3;29,17
18630,0;29,16
18633,8;29,14
18637,5;29,13
18641,3;29,11
18645,0;29,09
18648,8;29,07
18652,5;29,04
18656,3;29,02
18660,0;29,00
18663,8;28,98
18667,5;28,96
18671,3;28,95
18675,0;28,93
18678,8;28,92
18682,5;28,91
18686,3;28,90
18690,0;28,88
18693,8;28,88
18697,5;28,87
18701,3;28,86
18705,0;28,86
18708,8;28,86
18712,5;28,87
18716,3;28,87
18720,0;28,88
18723,8;28,89
18727,5;28,90
18731,3;28,91
18735,0;28,92
18738,8;28,93
18742,5;28,94
18746,3;28,95
18750,0;28,96
18753,8;28,97
18757,5;28,99
18761,3;29,00
18765,0;29,01
18768,8;29,02
18772,5;29,03
18776,3;29,03
18780,0;29,04
18783,8;29,04
18787,5;29,05
18791,3;29,05
18795,0;29,05
18798,8;29,05
18802,5;29,05
18806,3;29,06
18810,0;29,06
18813,8;29,06
18817,5;29,05
18821,3;29,05
18825,0;29,05
18828,8;29,05
18832,5;29,04
18836,3;29,04
18840,0;29,04
18843,8;29,04
18847,5;29,04
18851,3;29,05
18855,0;29,05
18858,8;29,06
18862,5;29,06
18866,3;29,07
18870,0;29,08
18873,8;29,08
18877,5;29,09
18881,3;29,10
18885,0;29,11
18888,8;29,12
18892,5;29,13
18896,3;29,14
18900,0;29,15
18903,8;29,16
18907,5;29,17
18911,3;29,18
18915,0;29,18
18918,8;29,19
18922,5;29,19
18926,3;29,19
18930,0;29,19
18933,8;29,19
18937,5;29,18
18941,3;29,18
18945,0;29,17
18948,8;29,17
18952,5;29,16
18956,3;29,15
18960,0;29,13
18963,8;29,12
18967,5;29,10
18971,3;29,08
18975,0;29,07
18978,8;29,05
18982,5;29,03
18986,3;29,02
18990,0;29,01
18993,8;29,00
18997,5;28,99
19001,3;28,98
19005,0;28,96
19008,8;28,96
19012,5;28,95
19016,3;28,94
19020,0;28,94
19023,8;28,94
19027,5;28,95
19031,3;28,96
19035,0;28,97
19038,8;28,98
19042,5;29,00
19046,3;29,01
19050,0;29,03
19053,8;29,05
19057,5;29,06
19061,3;29,08
19065,0;29,10
19068,8;29,12
19072,5;29,15
19076,3;29,17
19080,0;29,19
19083,8;29,22
19087,5;29,24
19091,3;29,25
19095,0;29,27
19098,8;29,28
19102,5;29,29
19106,3;29,30
19110,0;29,31
19113,8;29,31
19117,5;29,32
19121,3;29,32
19125,0;29,32
19128,8;29,32
19132,5;29,31
19136,3;29,31
19140,0;29,30
19143,8;29,29
19147,5;29,27
19151,3;29,26
19155,0;29,24
19158,8;29,23
19162,5;29,22
19166,3;29,20
19170,0;29,20
19173,8;29,19
19177,5;29,18
19181,3;29,17
19185,0;29,16
19188,8;29,16
19192,5;29,15
19196,3;29,15
19200,0;29,15
19203,8;29,15
19207,5;29,16
19211,3;29,17
19215,0;29,19
19218,8;29,20
19222,5;29,22
19226,3;29,24
19230,0;29,26
19233,8;29,29
19237,5;29,31
19241,3;29,33
19245,0;29,35
19248,8;29,38
19252,5;29,41
19256,3;29,43
19260,0;29,46
19263,8;29,49
19267,5;29,52
19271,3;29,54
19275,0;29,57
19278,8;29,58
19282,5;29,60
19286,3;29,61
19290,0;29,63
19293,8;29,64
19297,5;29,64
19301,3;29,65
19305,0;29,65
19308,8;29,66
19312,5;29,65
19316,3;29,65
19320,0;29,65
19323,8;29,64
19327,5;29,63
19331,3;29,61
19335,0;29,59
19338,8;29,58
19342,5;29,56
19346,3;29,54
19350,0;29,52
19353,8;29,51
19357,5;29,49
19361,3;29,47
19365,0;29,46
19368,8;29,44
19372,5;29,42
19376,3;29,41
19380,0;29,39
19383,8;29,38
19387,5;29,37
19391,3;29,36
19395,0;29,35
19398,8;29,34
19402,5;29,34
19406,3;29,34
19410,0;29,34
19413,8;29,34
19417,5;29,34
19421,3;29,34
19425,0;29,34
19428,8;29,35
19432,5;29,35
19436,3;29,36
19440,0;29,36
19443,8;29,37
19447,5;29,38
19451,3;29,39
19455,0;29,40
19458,8;29,40
19462,5;29,41
19466,3;29,42
19470,0;29,42
19473,8;29,43
19477,5;29,43
19481,3;29,44
19485,0;29,44
19488,8;29,44
19492,5;29,45
19496,3;29,45
19500,0;29,45
19503,8;29,45
19507,5;29,46
19511,3;29,46
19515,0;29,46
19518,8;29,46
19522,5;29,47
19526,3;29,47
19530,0;29,47
19533,8;29,47
19537,5;29,48
19541,3;29,48
19545,0;29,49
19548,8;29,50
19552,5;29,51
19556,3;29,52
19560,0;29,53
19563,8;29,54
19567,5;29,55
19571,3;29,56
19575,0;29,58
19578,8;29,59
19582,5;29,60
19586,3;29,62
19590,0;29,63
19593,8;29,65
19597,5;29,66
19601,3;29,68
19605,0;29,69
19608,8;29,71
19612,5;29,72
19616,3;29,73
19620,0;29,74
19623,8;29,75
19627,5;29,76
19631,3;29,76
19635,0;29,76
19638,8;29,77
19642,5;29,77
19646,3;29,77
19650,0;29,76
19653,8;29,76
19657,5;29,75
19661,3;29,74
19665,0;29,73
19668,8;29,72
19672,5;29,70
19676,3;29,68
19680,0;29,66
19683,8;29,64
19687,5;29,62
19691,3;29,60
19695,0;29,58
19698,8;29,56
19702,5;29,54
19706,3;29,52
19710,0;29,50
19713,8;29,48
19717,5;29,46
19721,3;29,44
19725,0;29,42
19728,8;29,40
19732,5;29,38
19736,3;29,37
19740,0;29,36
19743,8;29,35
19747,5;29,34
19751,3;29,34
19755,0;29,33
19758,8;29,33
19762,5;29,33
19766,3;29,33
19770,0;29,33
19773,8;29,33
19777,5;29,34
19781,3;29,34
19785,0;29,35
19788,8;29,36
19792,5;29,37
19796,3;29,38
19800,0;29,40
19803,8;29,41
19807,5;29,42
19811,3;29,43
19815,0;29,44
19818,8;29,45
19822,5;29,45
19826,3;29,46
19830,0;29,47
19833,8;29,48
19837,5;29,48
19841,3;29,49
19845,0;29,49
19848,8;29,50
19852,5;29,50
19856,3;29,50
19860,0;29,50
19863,8;29,49
19867,5;29,49
19871,3;29,48
19875,0;29,48
19878,8;29,47
19882,5;29,46
19886,3;29,46
19890,0;29,45
19893,8;29,45
19897,5;29,44
19901,3;29,44
19905,0;29,43
19908,8;29,42
19912,5;29,42
19916,3;29,41
19920,0;29,41
19923,8;29,40
19927,5;29,40
19931,3;29,41
19935,0;29,41
19938,8;29,42
19942,5;29,42
19946,3;29,43
19950,0;29,44
19953,8;29,46
19957,5;29,47
19961,3;29,49
19965,0;29,50
19968,8;29,52
19972,5;29,54
19976,3;29,57
19980,0;29,59
19983,8;29,62
19987,5;29,64
19991,3;29,67
19995,0;29,71
19998,8;29,74
20002,5;29,77
20006,3;29,80
20010,0;29,84
20013,8;29,87
20017,5;29,90
20021,3;29,94
20025,0;29,97
20028,8;30,01
20032,5;30,05
20036,3;30,08
20040,0;30,12
20043,8;30,16
20047,5;30,20
20051,3;30,23
20055,0;30,27
20058,8;30,31
20062,5;30,35
20066,3;30,39
20070,0;30,43
20073,8;30,47
20077,5;30,51
20081,3;30,55
20085,0;30,59
20088,8;30,63
20092,5;30,68
20096,3;30,73
20100,0;30,77
20103,8;30,82
20107,5;30,87
20111,3;30,93
20115,0;30,98
20118,8;31,03
20122,5;31,09
20126,3;31,14
20130,0;31,20
20133,8;31,25
20137,5;31,31
20141,3;31,37
20145,0;31,44
20148,8;31,50
20152,5;31,57
20156,3;31,63
20160,0;31,70
20163,8;31,76
20167,5;31,82
20171,3;31,88
20175,0;31,94
20178,8;31,99
20182,5;32,04
20186,3;32,10
20190,0;32,15
20193,8;32,20
20197,5;32,25
20201,3;32,30
20205,0;32,33
20208,8;32,37
20212,5;32,40
20216,3;32,42
20220,0;32,43
20223,8;32,44
20227,5;32,45
20231,3;32,45
20235,0;32,45
20238,8;32,44
20242,5;32,42
20246,3;32,41
20250,0;32,38
20253,8;32,35
20257,5;32,32
20261,3;32,28
20265,0;32,23
20268,8;32,17
20272,5;32,11
20276,3;32,05
20280,0;31,98
20283,8;31,91
20287,5;31,83
20291,3;31,76
20295,0;31,69
20298,8;31,62
20302,5;31,54
20306,3;31,46
20310,0;31,38
20313,8;31,29
20317,5;31,21
20321,3;31,13
20325,0;31,04
20328,8;30,96
20332,5;30,89
20336,3;30,81
20340,0;30,75
20343,8;30,69
20347,5;30,63
20351,3;30,57
20355,0;30,51
20358,8;30,46
20362,5;30,41
20366,3;30,37
20370,0;30,32
20373,8;30,29
20377,5;30,25
20381,3;30,22
20385,0;30,20
20388,8;30,18
20392,5;30,16
20396,3;30,15
20400,0;30,14
20403,8;30,14
20407,5;30,14
20411,3;30,14
20415,0;30,14
20418,8;30,14
20422,5;30,14
20426,3;30,14
20430,0;30,15
20433,8;30,15
20437,5;30,16
20441,3;30,17
20445,0;30,18
20448,8;30,20
20452,5;30,21
20456,3;30,22
20460,0;30,23
20463,8;30,24
20467,5;30,25
20471,3;30,25
20475,0;30,26
20478,8;30,27
20482,5;30,28
20486,3;30,28
20490,0;30,29
20493,8;30,30
20497,5;30,30
20501,3;30,31
20505,0;30,32
20508,8;30,33
20512,5;30,33
20516,3;30,34
20520,0;30,35
20523,8;30,35
20527,5;30,36
20531,3;30,37
20535,0;30,38
20538,8;30,39
20542,5;30,40
20546,3;30,41
20550,0;30,42
20553,8;30,43
20557,5;30,44
20561,3;30,45
20565,0;30,47
20568,8;30,48
20572,5;30,50
20576,3;30,51
20580,0;30,52
20583,8;30,53
20587,5;30,54
20591,3;30,55
20595,0;30,56
20598,8;30,57
20602,5;30,58
20606,3;30,58
20610,0;30,59
20613,8;30,60
20617,5;30,60
20621,3;30,60
20625,0;30,60
20628,8;30,60
20632,5;30,60
20636,3;30,59
20640,0;30,58
20643,8;30,57
20647,5;30,55
20651,3;30,53
20655,0;30,52
20658,8;30,50
20662,5;30,48
20666,3;30,46
20670,0;30,44
20673,8;30,41
20677,5;30,39
20681,3;30,37
20685,0;30,34
20688,8;30,32
20692,5;30,29
20696,3;30,26
20700,0;30,23
20703,8;30,20
20707,5;30,18
20711,3;30,15
20715,0;30,13
20718,8;30,11
20722,5;30,10
20726,3;30,08
20730,0;30,07
20733,8;30,05
20737,5;30,04
20741,3;30,03
20745,0;30,02
20748,8;30,01
20752,5;30,01
20756,3;30,00
20760,0;30,00
20763,8;30,00
20767,5;30,00
20771,3;30,01
20775,0;30,01
20778,8;30,02
20782,5;30,03
20786,3;30,04
20790,0;30,06
20793,8;30,07
20797,5;30,08
20801,3;30,09
20805,0;30,10
20808,8;30,11
20812,5;30,12
20816,3;30,13
20820,0;30,14
20823,8;30,15
20827,5;30,16
20831,3;30,17
20835,0;30,18
20838,8;30,19
20842,5;30,20
20846,3;30,21
20850,0;30,22
20853,8;30,22
20857,5;30,22
20861,3;30,23
20865,0;30,23
20868,8;30,23
20872,5;30,23
20876,3;30,23
20880,0;30,24
20883,8;30,24
20887,5;30,25
20891,3;30,25
20895,0;30,26
20898,8;30,27
20902,5;30,27
20906,3;30,28
20910,0;30,29
20913,8;30,30
20917,5;30,31
20921,3;30,32
20925,0;30,34
20928,8;30,35
20932,5;30,37
20936,3;30,39
20940,0;30,42
20943,8;30,44
20947,5;30,47
20951,3;30,50
20955,0;30,53
20958,8;30,56
20962,5;30,60
20966,3;30,63
20970,0;30,66
20973,8;30,70
20977,5;30,73
20981,3;30,76
20985,0;30,80
20988,8;30,83
20992,5;30,87
20996,3;30,90
21000,0;30,94
21003,8;30,98
21007,5;31,01
21011,3;31,04
21015,0;31,07
21018,8;31,10
21022,5;31,13
21026,3;31,15
21030,0;31,16
21033,8;31,18
21037,5;31,20
21041,3;31,21
21045,0;31,22
21048,8;31,23
21052,5;31,24
21056,3;31,24
21060,0;31,25
21063,8;31,25
21067,5;31,25
21071,3;31,25
21075,0;31,24
21078,8;31,24
21082,5;31,23
21086,3;31,21
21090,0;31,20
21093,8;31,19
21097,5;31,17
21101,3;31,16
21105,0;31,15
21108,8;31,14
21112,5;31,13
21116,3;31,13
21120,0;31,12
21123,8;31,12
21127,5;31,11
21131,3;31,10
21135,0;31,10
21138,8;31,10
21142,5;31,10
21146,3;31,10
21150,0;31,10
21153,8;31,10
21157,5;31,11
21161,3;31,12
21165,0;31,13
21168,8;31,15
21172,5;31,17
21176,3;31,19
21180,0;31,21
21183,8;31,23
21187,5;31,25
21191,3;31,27
21195,0;31,29
21198,8;31,31
21202,5;31,33
21206,3;31,35
21210,0;31,36
21213,8;31,39
21217,5;31,41
21221,3;31,43
21225,0;31,45
21228,8;31,46
21232,5;31,48
21236,3;31,49
21240,0;31,51
21243,8;31,51
21247,5;31,52
21251,3;31,52
21255,0;31,52
21258,8;31,51
21262,5;31,51
21266,3;31,50
21270,0;31,49
21273,8;31,47
21277,5;31,46
21281,3;31,44
21285,0;31,43
21288,8;31,41
21292,5;31,39
21296,3;31,36
21300,0;31,34
21303,8;31,31
21307,5;31,28
21311,3;31,24
21315,0;31,21
21318,8;31,18
21322,5;31,14
21326,3;31,11
21330,0;31,08
21333,8;31,05
21337,5;31,02
21341,3;31,00
21345,0;30,97
21348,8;30,95
21352,5;30,93
21356,3;30,90
21360,0;30,88
21363,8;30,86
21367,5;30,84
21371,3;30,82
21375,0;30,81
21378,8;30,80
21382,5;30,79
21386,3;30,78
21390,0;30,78
21393,8;30,78
21397,5;30,78
21401,3;30,79
21405,0;30,79
21408,8;30,80
21412,5;30,81
21416,3;30,81
21420,0;30,82
21423,8;30,83
21427,5;30,84
21431,3;30,84
21435,0;30,85
21438,8;30,86
21442,5;30,87
21446,3;30,88
21450,0;30,89
21453,8;30,90
21457,5;30,91
21461,3;30,92
21465,0;30,93
21468,8;30,93
21472,5;30,94
21476,3;30,94
21480,0;30,93
21483,8;30,93
21487,5;30,92
21491,3;30,92
21495,0;30,91
21498,8;30,90
21502,5;30,88
21506,3;30,87
21510,0;30,86
21513,8;30,85
21517,5;30,83
21521,3;30,82
21525,0;30,80
21528,8;30,79
21532,5;30,77
21536,3;30,75
21540,0;30,72
21543,8;30,70
21547,5;30,68
21551,3;30,66
21555,0;30,64
21558,8;30,63
21562,5;30,61
21566,3;30,60
21570,0;30,60
21573,8;30,59
21577,5;30,58
21581,3;30,58
21585,0;30,58
21588,8;30,58
21592,5;30,58
21596,3;30,58
21600,0;30,59
21603,8;30,60
21607,5;30,61
21611,3;30,62
21615,0;30,63
21618,8;30,65
21622,5;30,67
21626,3;30,69
21630,0;30,72
21633,8;30,75
21637,5;30,78
21641,3;30,81
21645,0;30,84
21648,8;30,87
21652,5;30,90
21656,3;30,93
21660,0;30,96
21663,8;30,98
21667,5;31,01
21671,3;31,04
21675,0;31,07
21678,8;31,09
21682,5;31,12
21686,3;31,15
21690,0;31,17
21693,8;31,19
21697,5;31,21
21701,3;31,23
21705,0;31,24
21708,8;31,25
21712,5;31,26
21716,3;31,26
21720,0;31,26
21723,8;31,26
21727,5;31,25
21731,3;31,24
21735,0;31,23
21738,8;31,22
21742,5;31,21
21746,3;31,19
21750,0;31,18
21753,8;31,16
21757,5;31,14
21761,3;31,12
21765,0;31,09
21768,8;31,06
21772,5;31,04
21776,3;31,00
21780,0;30,97
21783,8;30,94
21787,5;30,91
21791,3;30,88
21795,0;30,85
21798,8;30,82
21802,5;30,80
21806,3;30,78
21810,0;30,75
21813,8;30,73
21817,5;30,71
21821,3;30,69
21825,0;30,67
21828,8;30,65
21832,5;30,64
21836,3;30,62
21840,0;30,60
21843,8;30,59
21847,5;30,58
21851,3;30,57
21855,0;30,56
21858,8;30,56
21862,5;30,56
21866,3;30,56
21870,0;30,56
21873,8;30,56
21877,5;30,56
21881,3;30,56
21885,0;30,56
21888,8;30,56
21892,5;30,56
21896,3;30,56
21900,0;30,56
21903,8;30,55
21907,5;30,55
21911,3;30,55
21915,0;30,54
21918,8;30,54
21922,5;30,54
21926,3;30,53
21930,0;30,53
21933,8;30,52
21937,5;30,51
21941,3;30,50
21945,0;30,49
21948,8;30,48
21952,5;30,46
21956,3;30,45
21960,0;30,43
21963,8;30,41
21967,5;30,39
21971,3;30,37
21975,0;30,35
21978,8;30,33
21982,5;30,31
21986,3;30,29
21990,0;30,28
21993,8;30,26
21997,5;30,25
22001,3;30,24
22005,0;30,22
22008,8;30,21
22012,5;30,20
22016,3;30,18
22020,0;30,17
22023,8;30,16
22027,5;30,16
22031,3;30,15
22035,0;30,15
22038,8;30,15
22042,5;30,16
22046,3;30,17
22050,0;30,18
22053,8;30,19
22057,5;30,21
22061,3;30,23
22065,0;30,25
22068,8;30,27
22072,5;30,29
22076,3;30,32
22080,0;30,35
22083,8;30,38
22087,5;30,40
22091,3;30,43
22095,0;30,46
22098,8;30,50
22102,5;30,53
22106,3;30,57
22110,0;30,61
22113,8;30,65
22117,5;30,69
22121,3;30,73
22125,0;30,77
22128,8;30,81
22132,5;30,84
22136,3;30,87
22140,0;30,90
22143,8;30,93
22147,5;30,95
22151,3;30,98
22155,0;31,00
22158,8;31,02
22162,5;31,05
22166,3;31,06
22170,0;31,08
22173,8;31,10
22177,5;31,11
22181,3;31,12
22185,0;31,13
22188,8;31,13
22192,5;31,14
22196,3;31,14
22200,0;31,13
22203,8;31,12
22207,5;31,12
22211,3;31,10
22215,0;31,09
22218,8;31,08
22222,5;31,06
22226,3;31,05
22230,0;31,03
22233,8;31,02
22237,5;31,01
22241,3;30,99
22245,0;30,98
22248,8;30,96
22252,5;30,94
22256,3;30,93
22260,0;30,91
22263,8;30,89
22267,5;30,87
22271,3;30,86
22275,0;30,84
22278,8;30,83
22282,5;30,82
22286,3;30,81
22290,0;30,80
22293,8;30,80
22297,5;30,80
22301,3;30,79
22305,0;30,79
22308,8;30,79
22312,5;30,80
22316,3;30,80
22320,0;30,81
22323,8;30,81
22327,5;30,82
22331,3;30,82
22335,0;30,83
22338,8;30,84
22342,5;30,85
22346,3;30,86
22350,0;30,87
22353,8;30,89
22357,5;30,90
22361,3;30,92
22365,0;30,93
22368,8;30,95
22372,5;30,97
22376,3;30,98
22380,0;30,99
22383,8;31,01
22387,5;31,02
22391,3;31,03
22395,0;31,03
22398,8;31,04
22402,5;31,05
22406,3;31,06
22410,0;31,06
22413,8;31,07
22417,5;31,07
22421,3;31,08
22425,0;31,08
22428,8;31,08
22432,5;31,08
22436,3;31,08
22440,0;31,08
22443,8;31,08
22447,5;31,07
22451,3;31,07
22455,0;31,06
22458,8;31,05
22462,5;31,04
22466,3;31,03
22470,0;31,02
22473,8;31,01
22477,5;31,00
22481,3;30,99
22485,0;30,99
22488,8;30,98
22492,5;30,97
22496,3;30,97
22500,0;30,96
22503,8;30,95
22507,5;30,95
22511,3;30,94
22515,0;30,93
22518,8;30,93
22522,5;30,92
22526,3;30,92
22530,0;30,92
22533,8;30,92
22537,5;30,92
22541,3;30,92
22545,0;30,92
22548,8;30,93
22552,5;30,94
22556,3;30,94
22560,0;30,95
22563,8;30,96
22567,5;30,97
22571,3;30,98
22575,0;31,00
22578,8;31,01
22582,5;31,02
22586,3;31,03
22590,0;31,04
22593,8;31,06
22597,5;31,07
22601,3;31,09
22605,0;31,10
22608,8;31,12
22612,5;31,13
22616,3;31,15
22620,0;31,16
22623,8;31,18
22627,5;31,20
22631,3;31,21
22635,0;31,22
22638,8;31,24
22642,5;31,25
22646,3;31,26
22650,0;31,27
22653,8;31,28
22657,5;31,28
22661,3;31,29
22665,0;31,30
22668,8;31,31
22672,5;31,31
22676,3;31,32
22680,0;31,32
22683,8;31,33
22687,5;31,33
22691,3;31,34
22695,0;31,34
22698,8;31,35
22702,5;31,35
22706,3;31,35
22710,0;31,35
22713,8;31,36
22717,5;31,36
22721,3;31,36
22725,0;31,36
22728,8;31,36
22732,5;31,36
22736,3;31,37
22740,0;31,37
22743,8;31,38
22747,5;31,39
22751,3;31,39
22755,0;31,40
22758,8;31,41
22762,5;31,42
22766,3;31,43
22770,0;31,44
22773,8;31,45
22777,5;31,47
22781,3;31,48
22785,0;31,49
22788,8;31,50
22792,5;31,52
22796,3;31,53
22800,0;31,55
22803,8;31,56
22807,5;31,58
22811,3;31,60
22815,0;31,61
22818,8;31,63
22822,5;31,65
22826,3;31,67
22830,0;31,69
22833,8;31,70
22837,5;31,72
22841,3;31,73
22845,0;31,74
22848,8;31,76
22852,5;31,76
22856,3;31,77
22860,0;31,78
22863,8;31,79
22867,5;31,79
22871,3;31,80
22875,0;31,80
22878,8;31,80
22882,5;31,80
22886,3;31,80
22890,0;31,80
22893,8;31,80
22897,5;31,79
22901,3;31,79
22905,0;31,78
22908,8;31,77
22912,5;31,76
22916,3;31,74
22920,0;31,72
22923,8;31,71
22927,5;31,69
22931,3;31,67
22935,0;31,65
22938,8;31,63
22942,5;31,61
22946,3;31,60
22950,0;31,58
22953,8;31,57
22957,5;31,56
22961,3;31,54
22965,0;31,53
22968,8;31,51
22972,5;31,50
22976,3;31,48
22980,0;31,47
22983,8;31,46
22987,5;31,45
22991,3;31,44
22995,0;31,43
22998,8;31,43
23002,5;31,43
23006,3;31,43
23010,0;31,43
23013,8;31,44
23017,5;31,45
23021,3;31,46
23025,0;31,48
23028,8;31,49
23032,5;31,51
23036,3;31,53
23040,0;31,55
23043,8;31,57
23047,5;31,59
23051,3;31,61
23055,0;31,63
23058,8;31,65
23062,5;31,67
23066,3;31,69
23070,0;31,72
23073,8;31,75
23077,5;31,78
23081,3;31,80
23085,0;31,83
23088,8;31,86
23092,5;31,89
23096,3;31,91
23100,0;31,94
23103,8;31,96
23107,5;31,97
23111,3;31,99
23115,0;31,99
23118,8;32,00
23122,5;32,01
23126,3;32,01
23130,0;32,01
23133,8;32,01
23137,5;32,01
23141,3;32,00
23145,0;32,00
23148,8;31,99
23152,5;31,98
23156,3;31,96
23160,0;31,95
23163,8;31,93
23167,5;31,90
23171,3;31,88
23175,0;31,84
23178,8;31,81
23182,5;31,77
23186,3;31,73
23190,0;31,69
23193,8;31,64
23197,5;31,60
23201,3;31,55
23205,0;31,51
23208,8;31,46
23212,5;31,42
23216,3;31,38
23220,0;31,34
23223,8;31,30
23227,5;31,26
23231,3;31,21
23235,0;31,17
23238,8;31,13
23242,5;31,09
23246,3;31,04
23250,0;31,00
23253,8;30,97
23257,5;30,93
23261,3;30,90
23265,0;30,87
23268,8;30,84
23272,5;30,82
23276,3;30,80
23280,0;30,78
23283,8;30,77
23287,5;30,76
23291,3;30,76
23295,0;30,75
23298,8;30,75
23302,5;30,75
23306,3;30,75
23310,0;30,76
23313,8;30,76
23317,5;30,77
23321,3;30,78
23325,0;30,79
23328,8;30,80
23332,5;30,81
23336,3;30,83
23340,0;30,85
23343,8;30,87
23347,5;30,90
23351,3;30,92
23355,0;30,95
23358,8;30,98
23362,5;31,00
23366,3;31,03
23370,0;31,06
23373,8;31,08
23377,5;31,10
23381,3;31,12
23385,0;31,14
23388,8;31,16
23392,5;31,17
23396,3;31,19
23400,0;31,21
23403,8;31,22
23407,5;31,24
23411,3;31,25
23415,0;31,26
23418,8;31,27
23422,5;31,28
23426,3;31,29
23430,0;31,30
23433,8;31,31
23437,5;31,31
23441,3;31,32
23445,0;31,32
23448,8;31,32
23452,5;31,31
23456,3;31,31
23460,0;31,30
23463,8;31,30
23467,5;31,29
23471,3;31,28
23475,0;31,28
23478,8;31,27
23482,5;31,27
23486,3;31,26
23490,0;31,26
23493,8;31,26
23497,5;31,26
23501,3;31,26
23505,0;31,26
23508,8;31,27
23512,5;31,27
23516,3;31,27
23520,0;31,27
23523,8;31,27
23527,5;31,28
23531,3;31,28
23535,0;31,29
23538,8;31,30
23542,5;31,31
23546,3;31,32
23550,0;31,34
23553,8;31,35
23557,5;31,37
23561,3;31,39
23565,0;31,41
23568,8;31,44
23572,5;31,46
23576,3;31,49
23580,0;31,51
23583,8;31,54
23587,5;31,56
23591,3;31,59
23595,0;31,61
23598,8;31,63
23602,5;31,66
23606,3;31,68
23610,0;31,70
23613,8;31,72
23617,5;31,74
23621,3;31,76
23625,0;31,78
23628,8;31,81
23632,5;31,83
23636,3;31,84
23640,0;31,86
23643,8;31,88
23647,5;31,89
23651,3;31,90
23655,0;31,90
23658,8;31,91
23662,5;31,91
23666,3;31,90
23670,0;31,90
23673,8;31,89
23677,5;31,88
23681,3;31,86
23685,0;31,85
23688,8;31,83
23692,5;31,81
23696,3;31,79
23700,0;31,77
23703,8;31,75
23707,5;31,72
23711,3;31,69
23715,0;31,66
23718,8;31,63
23722,5;31,60
23726,3;31,56
23730,0;31,52
23733,8;31,48
23737,5;31,43
23741,3;31,39
23745,0;31,34
23748,8;31,29
23752,5;31,25
23756,3;31,20
23760,0;31,16
23763,8;31,11
23767,5;31,07
23771,3;31,04
23775,0;31,00
23778,8;30,96
23782,5;30,92
23786,3;30,89
23790,0;30,85
23793,8;30,82
23797,5;30,78
23801,3;30,75
23805,0;30,72
23808,8;30,69
23812,5;30,66
23816,3;30,63
23820,0;30,61
23823,8;30,60
23827,5;30,58
23831,3;30,57
23835,0;30,57
23838,8;30,56
23842,5;30,56
23846,3;30,57
23850,0;30,57
23853,8;30,58
23857,5;30,59
23861,3;30,60
23865,0;30,62
23868,8;30,63
23872,5;30,65
23876,3;30,67
23880,0;30,69
23883,8;30,70
23887,5;30,72
23891,3;30,75
23895,0;30,77
23898,8;30,80
23902,5;30,83
23906,3;30,86
23910,0;30,89
23913,8;30,93
23917,5;30,96
23921,3;30,99
23925,0;31,03
23928,8;31,06
23932,5;31,09
23936,3;31,12
23940,0;31,15
23943,8;31,17
23947,5;31,19
23951,3;31,22
23955,0;31,24
23958,8;31,26
23962,5;31,29
23966,3;31,31
23970,0;31,33
23973,8;31,35
23977,5;31,37
23981,3;31,38
23985,0;31,40
23988,8;31,42
23992,5;31,43
23996,3;31,45
24000,0;31,46
24003,8;31,47
24007,5;31,48
24011,3;31,49
24015,0;31,50
24018,8;31,50
24022,5;31,51
24026,3;31,52
24030,0;31,52
24033,8;31,52
24037,5;31,53
24041,3;31,53
24045,0;31,54
24048,8;31,54
24052,5;31,55
24056,3;31,55
24060,0;31,56
24063,8;31,56
24067,5;31,57
24071,3;31,58
24075,0;31,58
24078,8;31,59
24082,5;31,59
24086,3;31,60
24090,0;31,61
24093,8;31,61
24097,5;31,62
24101,3;31,63
24105,0;31,63
24108,8;31,64
24112,5;31,64
24116,3;31,65
24120,0;31,66
24123,8;31,66
24127,5;31,67
24131,3;31,68
24135,0;31,69
24138,8;31,70
24142,5;31,70
24146,3;31,71
24150,0;31,72
24153,8;31,73
24157,5;31,73
24161,3;31,74
24165,0;31,74
24168,8;31,74
24172,5;31,74
24176,3;31,74
24180,0;31,73
24183,8;31,73
24187,5;31,73
24191,3;31,72
24195,0;31,71
24198,8;31,70
24202,5;31,69
24206,3;31,68
24210,0;31,67
24213,8;31,66
24217,5;31,65
24221,3;31,63
24225,0;31,61
24228,8;31,60
24232,5;31,58
24236,3;31,56
24240,0;31,53
24243,8;31,51
24247,5;31,48
24251,3;31,45
24255,0;31,42
24258,8;31,39
24262,5;31,35
24266,3;31,32
24270,0;31,29
24273,8;31,26
24277,5;31,22
24281,3;31,19
24285,0;31,16
24288,8;31,13
24292,5;31,11
24296,3;31,08
24300,0;31,05
24303,8;31,03
24307,5;31,00
24311,3;30,97
24315,0;30,94
24318,8;30,91
24322,5;30,89
24326,3;30,86
24330,0;30,84
24333,8;30,82
24337,5;30,80
24341,3;30,78
24345,0;30,77
24348,8;30,76
24352,5;30,75
24356,3;30,75
24360,0;30,75
24363,8;30,75
24367,5;30,76
24371,3;30,76
24375,0;30,77
24378,8;30,78
24382,5;30,79
24386,3;30,81
24390,0;30,82
24393,8;30,84
24397,5;30,86
24401,3;30,88
24405,0;30,90
24408,8;30,92
24412,5;30,94
24416,3;30,97
24420,0;30,99
24423,8;31,03
24427,5;31,06
24431,3;31,09
24435,0;31,13
24438,8;31,17
24442,5;31,21
24446,3;31,24
24450,0;31,28
24453,8;31,31
24457,5;31,34
24461,3;31,38
24465,0;31,40
24468,8;31,43
24472,5;31,45
24476,3;31,47
24480,0;31,49
24483,8;31,51
24487,5;31,53
24491,3;31,54
24495,0;31,56
24498,8;31,57
24502,5;31,58
24506,3;31,59
24510,0;31,60
24513,8;31,61
24517,5;31,61
24521,3;31,61
24525,0;31,60
24528,8;31,60
24532,5;31,59
24536,3;31,57
24540,0;31,55
24543,8;31,53
24547,5;31,50
24551,3;31,47
24555,0;31,44
24558,8;31,41
24562,5;31,37
24566,3;31,34
24570,0;31,30
24573,8;31,26
24577,5;31,23
24581,3;31,19
24585,0;31,16
24588,8;31,12
24592,5;31,09
24596,3;31,05
24600,0;31,02
24603,8;30,98
24607,5;30,94
24611,3;30,90
24615,0;30,85
24618,8;30,81
24622,5;30,77
24626,3;30,73
24630,0;30,70
24633,8;30,66
24637,5;30,63
24641,3;30,60
24645,0;30,57
24648,8;30,55
24652,5;30,53
24656,3;30,52
24660,0;30,51
24663,8;30,50
24667,5;30,49
24671,3;30,49
24675,0;30,49
24678,8;30,49
24682,5;30,49
24686,3;30,49
24690,0;30,50
24693,8;30,51
24697,5;30,52
24701,3;30,53
24705,0;30,54
24708,8;30,56
24712,5;30,58
24716,3;30,60
24720,0;30,62
24723,8;30,65
24727,5;30,68
24731,3;30,71
24735,0;30,75
24738,8;30,78
24742,5;30,82
24746,3;30,86
24750,0;30,90
24753,8;30,94
24757,5;30,97
24761,3;31,01
24765,0;31,04
24768,8;31,07
24772,5;31,10
24776,3;31,13
24780,0;31,16
24783,8;31,18
24787,5;31,21
24791,3;31,24
24795,0;31,26
24798,8;31,29
24802,5;31,31
24806,3;31,33
24810,0;31,36
24813,8;31,37
24817,5;31,39
24821,3;31,40
24825,0;31,42
24828,8;31,42
24832,5;31,43
24836,3;31,43
24840,0;31,42
24843,8;31,42
24847,5;31,41
24851,3;31,40
24855,0;31,38
24858,8;31,36
24862,5;31,35
24866,3;31,32
24870,0;31,30
24873,8;31,28
24877,5;31,25
24881,3;31,23
24885,0;31,20
24888,8;31,17
24892,5;31,14
24896,3;31,11
24900,0;31,08
24903,8;31,05
24907,5;31,02
24911,3;30,98
24915,0;30,94
24918,8;30,91
24922,5;30,87
24926,3;30,83
24930,0;30,79
24933,8;30,75
24937,5;30,70
24941,3;30,66
24945,0;30,62
24948,8;30,58
24952,5;30,54
24956,3;30,50
24960,0;30,46
