Created as New Dataset;Sample 009 By student Date s—ndag, februari 22 2026
nm;%T
1500,0;27,57
1503,8;28,28
1507,5;28,75
1511,3;29,30
1515,0;28,83
1518,8;27,70
1522,5;28,61
1526,3;28,58
1530,0;28,06
1533,8;28,64
1537,5;28,10
1541,3;27,83
1545,0;27,38
1548,8;28,50
1552,5;27,32
1556,3;28,02
1560,0;26,93
1563,8;27,34
1567,5;26,48
1571,3;26,95
1575,0;26,83
1578,8;26,87
1582,5;26,77
1586,3;26,50
1590,0;26,21
1593,8;26,22
1597,5;25,41
1601,3;26,91
1605,0;27,17
1608,8;26,97
1612,5;26,79
1616,3;26,68
1620,0;26,39
1623,8;26,55
1627,5;27,52
1631,3;29,04
1635,0;27,72
1638,8;28,71
1642,5;28,70
1646,3;29,65
1650,0;30,23
1653,8;29,54
1657,5;31,44
1661,3;30,27
1665,0;32,26
1668,8;32,39
1672,5;31,44
1676,3;34,68
1680,0;32,51
1683,8;31,87
1687,5;36,54
1691,3;34,55
1695,0;32,51
1698,8;33,98
1702,5;35,41
1706,3;34,16
1710,0;33,21
1713,8;32,71
1717,5;33,13
1721,3;33,25
1725,0;31,68
1728,8;30,97
1732,5;30,05
1736,3;29,27
1740,0;29,13
1743,8;28,25
1747,5;29,09
1751,3;27,61
1755,0;26,55
1758,8;26,79
1762,5;25,82
1766,3;26,54
1770,0;25,64
1773,8;24,08
1777,5;24,07
1781,3;25,02
1785,0;24,00
1788,8;23,38
1792,5;23,29
1796,3;23,49
1800,0;23,10
1803,8;22,53
1807,5;22,58
1811,3;22,63
1815,0;22,51
1818,8;22,72
1822,5;22,18
1826,3;23,82
1830,0;22,17
1833,8;23,22
1837,5;23,86
1841,3;23,25
1845,0;23,05
1848,8;22,32
1852,5;24,53
1856,3;24,46
1860,0;24,37
1863,8;24,81
1867,5;24,97
1871,3;26,26
1875,0;24,75
1878,8;26,27
1882,5;25,36
1886,3;26,24
1890,0;26,86
1893,8;26,57
1897,5;27,27
1901,3;26,96
1905,0;27,47
1908,8;27,07
1912,5;27,09
1916,3;26,47
1920,0;27,89
1923,8;28,07
1927,5;27,37
1931,3;27,27
1935,0;27,62
1938,8;27,32
1942,5;28,42
1946,3;29,32
1950,0;27,91
1953,8;29,01
1957,5;28,32
1961,3;30,15
1965,0;30,22
1968,8;29,97
1972,5;30,39
1976,3;29,01
1980,0;29,29
1983,8;29,87
1987,5;31,61
1991,3;29,55
1995,0;29,87
1998,8;30,25
2002,5;31,47
2006,3;30,06
2010,0;30,56
2013,8;30,38
2017,5;29,56
2021,3;30,72
2025,0;30,84
2028,8;30,90
2032,5;29,94
2036,3;32,13
2040,0;31,84
2043,8;30,25
2047,5;29,92
2051,3;31,13
2055,0;31,70
2058,8;30,98
2062,5;31,68
2066,3;31,58
2070,0;31,87
2073,8;32,54
2077,5;32,71
2081,3;32,42
2085,0;31,46
2088,8;31,53
2092,5;31,03
2096,3;30,93
2100,0;30,98
2103,8;30,07
2107,5;31,19
2111,3;30,91
2115,0;30,79
2118,8;32,54
2122,5;32,05
2126,3;31,93
2130,0;30,10
2133,8;32,96
2137,5;33,64
2141,3;31,91
2145,0;30,61
2148,8;31,36
2152,5;29,98
2156,3;34,44
2160,0;30,75
2163,8;34,49
2167,5;29,76
2171,3;30,95
2175,0;31,81
2178,8;29,33
2182,5;28,82
2186,3;30,26
2190,0;34,04
2193,8;31,23
2197,5;30,68
2201,3;29,13
2205,0;30,89
2208,8;30,60
2212,5;31,56
2216,3;28,46
2220,0;29,89
2223,8;33,60
2227,5;31,94
2231,3;35,19
2235,0;31,59
2238,8;36,22
2242,5;35,85
2246,3;28,41
2250,0;30,72
2253,8;34,63
2257,5;31,78
2261,3;33,20
2265,0;29,79
2268,8;27,24
2272,5;32,32
2276,3;33,90
2280,0;27,85
2283,8;31,01
2287,5;35,99
2291,3;32,03
2295,0;28,04
2298,8;32,17
2302,5;40,38
2306,3;33,10
2310,0;47,66
2313,8;24,28
2317,5;25,71
2321,3;31,67
2325,0;31,32
2328,8;43,04
2332,5;31,03
2336,3;27,69
2340,0;35,39
2343,8;30,42
2347,5;31,18
2351,3;31,38
2355,0;35,76
2358,8;33,46
2362,5;32,79
2366,3;33,68
2370,0;34,33
2373,8;33,53
2377,5;31,45
2381,3;33,00
2385,0;32,02
2388,8;33,56
2392,5;32,96
2396,3;34,57
2400,0;32,26
2403,8;34,65
2407,5;33,29
2411,3;33,13
2415,0;32,62
2418,8;33,52
2422,5;33,57
2426,3;32,34
2430,0;32,11
2433,8;30,88
2437,5;32,99
2441,3;32,40
2445,0;32,43
2448,8;32,78
2452,5;32,92
2456,3;32,15
2460,0;33,28
2463,8;33,09
2467,5;33,66
2471,3;32,84
2475,0;32,83
2478,8;32,28
2482,5;31,81
2486,3;32,39
2490,0;33,40
2493,8;32,00
2497,5;31,89
2501,3;32,44
2505,0;32,69
2508,8;31,24
2512,5;31,53
2516,3;32,20
2520,0;32,49
2523,8;31,63
2527,5;33,02
2531,3;32,67
2535,0;33,77
2538,8;33,72
2542,5;32,83
2546,3;32,21
2550,0;32,49
2553,8;33,31
2557,5;32,73
2561,3;33,18
2565,0;32,92
2568,8;32,26
2572,5;33,36
2576,3;33,46
2580,0;32,51
2583,8;32,56
2587,5;32,99
2591,3;32,81
2595,0;33,68
2598,8;33,03
2602,5;32,71
2606,3;31,85
2610,0;32,70
2613,8;32,63
2617,5;32,74
2621,3;32,65
2625,0;33,16
2628,8;32,05
2632,5;32,15
2636,3;32,20
2640,0;32,25
2643,8;32,20
2647,5;32,52
2651,3;32,46
2655,0;32,85
2658,8;32,59
2662,5;33,57
2666,3;33,15
2670,0;33,24
2673,8;32,75
2677,5;33,32
2681,3;32,52
2685,0;32,45
2688,8;32,50
2692,5;32,19
2696,3;33,10
2700,0;33,15
2703,8;32,29
2707,5;32,67
2711,3;32,72
2715,0;33,34
2718,8;32,35
2722,5;32,81
2726,3;32,97
2730,0;32,70
2733,8;33,07
2737,5;32,78
2741,3;33,16
2745,0;32,37
2748,8;32,18
2752,5;31,80
2756,3;32,65
2760,0;32,21
2763,8;32,18
2767,5;32,33
2771,3;32,45
2775,0;32,19
2778,8;31,66
2782,5;32,16
2786,3;32,20
2790,0;32,42
2793,8;32,33
2797,5;31,82
2801,3;32,13
2805,0;32,23
2808,8;31,86
2812,5;32,12
2816,3;31,68
2820,0;31,99
2823,8;31,88
2827,5;31,81
2831,3;32,22
2835,0;32,14
2838,8;32,09
2842,5;31,80
2846,3;32,12
2850,0;31,98
2853,8;31,83
2857,5;31,55
2861,3;31,93
2865,0;31,86
2868,8;31,52
2872,5;32,10
2876,3;31,91
2880,0;30,99
2883,8;31,91
2887,5;32,00
2891,3;31,74
2895,0;31,49
2898,8;31,78
2902,5;31,83
2906,3;31,64
2910,0;31,87
2913,8;31,65
2917,5;31,42
2921,3;31,48
2925,0;31,69
2928,8;31,65
2932,5;31,20
2936,3;31,67
2940,0;31,83
2943,8;31,69
2947,5;31,65
2951,3;31,76
2955,0;31,79
2958,8;31,70
2962,5;31,99
2966,3;31,79
2970,0;32,04
2973,8;31,72
2977,5;31,44
2981,3;31,88
2985,0;31,41
2988,8;31,45
2992,5;31,55
2996,3;31,56
3000,0;31,16
3003,8;31,45
3007,5;31,49
3011,3;31,53
3015,0;31,51
3018,8;31,31
3022,5;31,60
3026,3;31,43
3030,0;31,56
3033,8;31,30
3037,5;31,58
3041,3;31,67
3045,0;31,27
3048,8;31,50
3052,5;31,30
3056,3;31,22
3060,0;31,43
3063,8;31,42
3067,5;31,50
3071,3;31,25
3075,0;31,30
3078,8;31,43
3082,5;31,50
3086,3;31,53
3090,0;31,35
3093,8;31,34
3097,5;31,00
3101,3;31,28
3105,0;31,11
3108,8;31,19
3112,5;31,63
3116,3;31,58
3120,0;31,58
3123,8;31,53
3127,5;31,43
3131,3;31,37
3135,0;31,44
3138,8;31,47
3142,5;31,71
3146,3;31,54
3150,0;31,03
3153,8;31,47
3157,5;31,23
3161,3;31,49
3165,0;31,64
3168,8;31,54
3172,5;31,21
3176,3;31,24
3180,0;31,39
3183,8;31,55
3187,5;31,41
3191,3;31,33
3195,0;31,43
3198,8;31,36
3202,5;31,55
3206,3;31,20
3210,0;31,34
3213,8;31,57
3217,5;31,40
3221,3;31,67
3225,0;31,56
3228,8;31,10
3232,5;31,40
3236,3;31,55
3240,0;31,54
3243,8;31,33
3247,5;31,42
3251,3;31,35
3255,0;31,37
3258,8;31,55
3262,5;31,63
3266,3;31,38
3270,0;31,22
3273,8;31,34
3277,5;31,42
3281,3;31,39
3285,0;31,43
3288,8;31,57
3292,5;31,24
3296,3;31,23
3300,0;31,34
3303,8;31,30
3307,5;31,39
3311,3;31,33
3315,0;31,13
3318,8;31,54
3322,5;31,34
3326,3;31,28
3330,0;31,33
3333,8;31,35
3337,5;31,18
3341,3;31,08
3345,0;30,97
3348,8;31,30
3352,5;31,26
3356,3;31,27
3360,0;31,13
3363,8;31,13
3367,5;31,28
3371,3;31,04
3375,0;31,01
3378,8;30,92
3382,5;31,13
3386,3;31,24
3390,0;31,03
3393,8;30,99
3397,5;31,10
3401,3;31,09
3405,0;31,03
3408,8;30,97
3412,5;31,07
3416,3;31,02
3420,0;30,90
3423,8;30,91
3427,5;30,82
3431,3;31,05
3435,0;30,86
3438,8;30,84
3442,5;30,84
3446,3;31,01
3450,0;30,98
3453,8;31,03
3457,5;31,12
3461,3;31,01
3465,0;31,25
3468,8;31,37
3472,5;31,05
3476,3;31,02
3480,0;31,10
3483,8;31,14
3487,5;31,16
3491,3;31,15
3495,0;31,06
3498,8;30,99
3502,5;30,91
3506,3;30,88
3510,0;30,93
3513,8;30,94
3517,5;31,09
3521,3;31,27
3525,0;31,29
3528,8;31,13
3532,5;31,03
3536,3;31,08
3540,0;31,07
3543,8;31,37
3547,5;31,38
3551,3;31,44
3555,0;31,22
3558,8;31,20
3562,5;31,23
3566,3;31,30
3570,0;31,23
3573,8;31,21
3577,5;31,30
3581,3;31,17
3585,0;31,25
3588,8;31,31
3592,5;31,38
3596,3;31,30
3600,0;31,39
3603,8;31,28
3607,5;31,15
3611,3;31,15
3615,0;31,21
3618,8;31,18
3622,5;31,20
3626,3;31,28
3630,0;31,34
3633,8;31,40
3637,5;31,40
3641,3;31,22
3645,0;31,26
3648,8;31,27
3652,5;31,14
3656,3;31,13
3660,0;31,23
3663,8;31,38
3667,5;31,34
3671,3;31,29
3675,0;31,10
3678,8;31,17
3682,5;31,26
3686,3;31,30
3690,0;31,42
3693,8;31,44
3697,5;31,33
3701,3;31,27
3705,0;31,15
3708,8;31,08
3712,5;31,08
3716,3;31,21
3720,0;31,31
3723,8;31,24
3727,5;31,29
3731,3;31,22
3735,0;31,22
3738,8;31,23
3742,5;31,21
3746,3;31,22
3750,0;31,28
3753,8;31,10
3757,5;31,10
3761,3;31,21
3765,0;31,20
3768,8;31,14
3772,5;31,08
3776,3;31,22
3780,0;31,19
3783,8;31,15
3787,5;31,36
3791,3;31,31
3795,0;31,20
3798,8;31,19
3802,5;31,21
3806,3;31,15
3810,0;31,25
3813,8;31,34
3817,5;31,30
3821,3;31,26
3825,0;31,20
3828,8;31,16
3832,5;31,14
3836,3;31,24
3840,0;31,36
3843,8;31,27
3847,5;31,20
3851,3;31,28
3855,0;31,25
3858,8;31,16
3862,5;31,14
3866,3;31,13
3870,0;31,08
3873,8;30,98
3877,5;31,04
3881,3;31,11
3885,0;31,15
3888,8;31,09
3892,5;31,07
3896,3;31,16
3900,0;31,18
3903,8;31,18
3907,5;31,13
3911,3;31,16
3915,0;31,11
3918,8;31,20
3922,5;31,22
3926,3;31,13
3930,0;31,14
3933,8;31,12
3937,5;31,20
3941,3;31,31
3945,0;31,23
3948,8;31,05
3952,5;31,02
3956,3;31,10
3960,0;31,16
3963,8;31,16
3967,5;31,23
3971,3;31,15
3975,0;30,99
3978,8;30,98
3982,5;31,04
3986,3;31,12
3990,0;31,13
3993,8;31,16
3997,5;31,16
4001,3;31,23
4005,0;31,23
4008,8;31,14
4012,5;31,13
4016,3;31,18
4020,0;31,14
4023,8;31,20
4027,5;31,16
4031,3;31,09
4035,0;31,11
4038,8;31,16
4042,5;31,13
4046,3;31,24
4050,0;31,24
4053,8;31,13
4057,5;31,06
4061,3;31,06
4065,0;31,14
4068,8;31,07
4072,5;31,04
4076,3;31,06
4080,0;31,06
4083,8;31,07
4087,5;31,11
4091,3;31,10
4095,0;31,04
4098,8;31,07
4102,5;31,10
4106,3;31,15
4110,0;31,14
4113,8;31,16
4117,5;31,14
4121,3;31,03
4125,0;31,00
4128,8;30,94
4132,5;30,90
4136,3;30,96
4140,0;31,09
4143,8;31,11
4147,5;31,04
4151,3;31,04
4155,0;30,98
4158,8;30,96
4162,5;30,99
4166,3;30,99
4170,0;30,92
4173,8;30,89
4177,5;30,92
4181,3;30,96
4185,0;30,94
4188,8;30,95
4192,5;31,03
4196,3;31,04
4200,0;30,94
4203,8;30,98
4207,5;31,10
4211,3;31,03
4215,0;30,95
4218,8;30,99
4222,5;31,08
4226,3;31,01
4230,0;30,97
4233,8;30,98
4237,5;30,92
4241,3;30,89
4245,0;30,70
4248,8;30,57
4252,5;30,70
4256,3;30,92
4260,0;30,79
4263,8;30,89
4267,5;31,28
4271,3;30,98
4275,0;30,54
4278,8;30,48
4282,5;30,75
4286,3;30,92
4290,0;30,80
4293,8;30,64
4297,5;30,56
4301,3;30,57
4305,0;30,43
4308,8;30,32
4312,5;30,28
4316,3;30,31
4320,0;30,43
4323,8;30,40
4327,5;30,41
4331,3;30,55
4335,0;30,56
4338,8;30,53
4342,5;30,62
4346,3;30,70
4350,0;30,68
4353,8;30,65
4357,5;30,69
4361,3;30,78
4365,0;30,83
4368,8;30,78
4372,5;30,72
4376,3;30,75
4380,0;30,83
4383,8;30,80
4387,5;30,79
4391,3;30,85
4395,0;30,89
4398,8;30,92
4402,5;30,91
4406,3;30,85
4410,0;30,81
4413,8;30,80
4417,5;30,81
4421,3;30,90
4425,0;30,90
4428,8;30,86
4432,5;30,88
4436,3;30,88
4440,0;30,81
4443,8;30,74
4447,5;30,74
4451,3;30,80
4455,0;30,83
4458,8;30,85
4462,5;30,86
4466,3;30,84
4470,0;30,80
4473,8;30,73
4477,5;30,72
4481,3;30,75
4485,0;30,75
4488,8;30,74
4492,5;30,76
4496,3;30,77
4500,0;30,71
4503,8;30,68
4507,5;30,69
4511,3;30,67
4515,0;30,68
4518,8;30,67
4522,5;30,65
4526,3;30,63
4530,0;30,63
4533,8;30,65
4537,5;30,72
4541,3;30,76
4545,0;30,71
4548,8;30,63
4552,5;30,63
4556,3;30,67
4560,0;30,67
4563,8;30,65
4567,5;30,66
4571,3;30,67
4575,0;30,65
4578,8;30,61
4582,5;30,59
4586,3;30,66
4590,0;30,77
4593,8;30,78
4597,5;30,71
4601,3;30,66
4605,0;30,62
4608,8;30,58
4612,5;30,56
4616,3;30,62
4620,0;30,68
4623,8;30,66
4627,5;30,68
4631,3;30,72
4635,0;30,74
4638,8;30,76
4642,5;30,72
4646,3;30,60
4650,0;30,54
4653,8;30,56
4657,5;30,56
4661,3;30,57
4665,0;30,64
4668,8;30,65
4672,5;30,58
4676,3;30,53
4680,0;30,55
4683,8;30,55
4687,5;30,53
4691,3;30,54
4695,0;30,57
4698,8;30,60
4702,5;30,59
4706,3;30,57
4710,0;30,55
4713,8;30,52
4717,5;30,48
4721,3;30,49
4725,0;30,50
4728,8;30,49
4732,5;30,50
4736,3;30,51
4740,0;30,54
4743,8;30,58
4747,5;30,55
4751,3;30,51
4755,0;30,51
4758,8;30,52
4762,5;30,50
4766,3;30,50
4770,0;30,52
4773,8;30,51
4777,5;30,49
4781,3;30,51
4785,0;30,53
4788,8;30,52
4792,5;30,55
4796,3;30,55
4800,0;30,49
4803,8;30,44
4807,5;30,41
4811,3;30,36
4815,0;30,35
4818,8;30,43
4822,5;30,51
4826,3;30,55
4830,0;30,56
4833,8;30,55
4837,5;30,55
4841,3;30,54
4845,0;30,50
4848,8;30,43
4852,5;30,39
4856,3;30,39
4860,0;30,39
4863,8;30,39
4867,5;30,34
4871,3;30,30
4875,0;30,33
4878,8;30,35
4882,5;30,35
4886,3;30,38
4890,0;30,39
4893,8;30,37
4897,5;30,34
4901,3;30,30
4905,0;30,30
4908,8;30,31
4912,5;30,31
4916,3;30,29
4920,0;30,28
4923,8;30,32
4927,5;30,39
4931,3;30,42
4935,0;30,43
4938,8;30,45
4942,5;30,47
4946,3;30,42
4950,0;30,36
4953,8;30,34
4957,5;30,36
4961,3;30,38
4965,0;30,38
4968,8;30,36
4972,5;30,33
4976,3;30,33
4980,0;30,36
4983,8;30,33
4987,5;30,28
4991,3;30,27
4995,0;30,31
4998,8;30,35
5002,5;30,38
5006,3;30,35
5010,0;30,28
5013,8;30,21
5017,5;30,20
5021,3;30,29
5025,0;30,39
5028,8;30,39
5032,5;30,31
5036,3;30,28
5040,0;30,29
5043,8;30,26
5047,5;30,20
5051,3;30,20
5055,0;30,23
5058,8;30,25
5062,5;30,29
5066,3;30,34
5070,0;30,34
5073,8;30,27
5077,5;30,21
5081,3;30,25
5085,0;30,35
5088,8;30,37
5092,5;30,31
5096,3;30,29
5100,0;30,33
5103,8;30,37
5107,5;30,37
5111,3;30,34
5115,0;30,33
5118,8;30,31
5122,5;30,27
5126,3;30,26
5130,0;30,27
5133,8;30,26
5137,5;30,25
5141,3;30,22
5145,0;30,19
5148,8;30,19
5152,5;30,20
5156,3;30,19
5160,0;30,18
5163,8;30,20
5167,5;30,24
5171,3;30,27
5175,0;30,27
5178,8;30,24
5182,5;30,21
5186,3;30,22
5190,0;30,24
5193,8;30,24
5197,5;30,23
5201,3;30,24
5205,0;30,26
5208,8;30,26
5212,5;30,22
5216,3;30,17
5220,0;30,13
5223,8;30,13
5227,5;30,15
5231,3;30,17
5235,0;30,19
5238,8;30,20
5242,5;30,22
5246,3;30,22
5250,0;30,18
5253,8;30,15
5257,5;30,14
5261,3;30,11
5265,0;30,07
5268,8;30,04
5272,5;30,06
5276,3;30,11
5280,0;30,16
5283,8;30,16
5287,5;30,13
5291,3;30,12
5295,0;30,13
5298,8;30,12
5302,5;30,06
5306,3;30,01
5310,0;30,02
5313,8;30,08
5317,5;30,13
5321,3;30,17
5325,0;30,18
5328,8;30,18
5332,5;30,19
5336,3;30,22
5340,0;30,22
5343,8;30,18
5347,5;30,14
5351,3;30,13
5355,0;30,15
5358,8;30,14
5362,5;30,11
5366,3;30,09
5370,0;30,11
5373,8;30,16
5377,5;30,20
5381,3;30,21
5385,0;30,17
5388,8;30,13
5392,5;30,08
5396,3;30,04
5400,0;30,01
5403,8;30,00
5407,5;30,00
5411,3;30,01
5415,0;30,02
5418,8;30,05
5422,5;30,10
5426,3;30,11
5430,0;30,07
5433,8;30,01
5437,5;30,01
5441,3;30,02
5445,0;30,03
5448,8;30,02
5452,5;30,01
5456,3;29,99
5460,0;29,97
5463,8;29,96
5467,5;29,98
5471,3;29,98
5475,0;29,97
5478,8;29,97
5482,5;29,98
5486,3;29,98
5490,0;29,95
5493,8;29,92
5497,5;29,90
5501,3;29,91
5505,0;29,92
5508,8;29,92
5512,5;29,88
5516,3;29,82
5520,0;29,79
5523,8;29,81
5527,5;29,83
5531,3;29,84
5535,0;29,86
5538,8;29,87
5542,5;29,86
5546,3;29,83
5550,0;29,84
5553,8;29,88
5557,5;29,90
5561,3;29,88
5565,0;29,81
5568,8;29,73
5572,5;29,66
5576,3;29,62
5580,0;29,63
5583,8;29,68
5587,5;29,70
5591,3;29,68
5595,0;29,66
5598,8;29,67
5602,5;29,69
5606,3;29,70
5610,0;29,69
5613,8;29,66
5617,5;29,63
5621,3;29,62
5625,0;29,62
5628,8;29,61
5632,5;29,60
5636,3;29,60
5640,0;29,63
5643,8;29,66
5647,5;29,67
5651,3;29,62
5655,0;29,55
5658,8;29,51
5662,5;29,49
5666,3;29,48
5670,0;29,46
5673,8;29,43
5677,5;29,41
5681,3;29,39
5685,0;29,38
5688,8;29,38
5692,5;29,39
5696,3;29,38
5700,0;29,36
5703,8;29,34
5707,5;29,32
5711,3;29,29
5715,0;29,29
5718,8;29,30
5722,5;29,30
5726,3;29,26
5730,0;29,21
5733,8;29,17
5737,5;29,15
5741,3;29,14
5745,0;29,12
5748,8;29,11
5752,5;29,11
5756,3;29,11
5760,0;29,09
5763,8;29,06
5767,5;29,04
5771,3;29,05
5775,0;29,05
5778,8;29,06
5782,5;29,07
5786,3;29,06
5790,0;29,05
5793,8;29,06
5797,5;29,08
5801,3;29,11
5805,0;29,13
5808,8;29,12
5812,5;29,12
5816,3;29,15
5820,0;29,18
5823,8;29,19
5827,5;29,17
5831,3;29,16
5835,0;29,15
5838,8;29,12
5842,5;29,08
5846,3;29,07
5850,0;29,06
5853,8;29,06
5857,5;29,06
5861,3;29,07
5865,0;29,08
5868,8;29,10
5872,5;29,13
5876,3;29,16
5880,0;29,16
5883,8;29,15
5887,5;29,11
5891,3;29,06
5895,0;29,06
5898,8;29,11
5902,5;29,14
5906,3;29,13
5910,0;29,10
5913,8;29,09
5917,5;29,11
5921,3;29,14
5925,0;29,16
5928,8;29,15
5932,5;29,10
5936,3;29,02
5940,0;28,99
5943,8;28,98
5947,5;28,98
5951,3;28,98
5955,0;28,99
5958,8;28,98
5962,5;28,96
5966,3;28,93
5970,0;28,90
5973,8;28,89
5977,5;28,91
5981,3;28,93
5985,0;28,92
5988,8;28,90
5992,5;28,89
5996,3;28,88
6000,0;28,86
6003,8;28,84
6007,5;28,81
6011,3;28,79
6015,0;28,80
6018,8;28,82
6022,5;28,84
6026,3;28,82
6030,0;28,78
6033,8;28,77
6037,5;28,78
6041,3;28,79
6045,0;28,79
6048,8;28,79
6052,5;28,82
6056,3;28,81
6060,0;28,77
6063,8;28,76
6067,5;28,79
6071,3;28,82
6075,0;28,83
6078,8;28,82
6082,5;28,80
6086,3;28,80
6090,0;28,81
6093,8;28,84
6097,5;28,87
6101,3;28,88
6105,0;28,89
6108,8;28,88
6112,5;28,86
6116,3;28,83
6120,0;28,79
6123,8;28,76
6127,5;28,76
6131,3;28,79
6135,0;28,82
6138,8;28,84
6142,5;28,85
6146,3;28,85
6150,0;28,85
6153,8;28,85
6157,5;28,88
6161,3;28,91
6165,0;28,93
6168,8;28,92
6172,5;28,91
6176,3;28,90
6180,0;28,90
6183,8;28,89
6187,5;28,87
6191,3;28,86
6195,0;28,85
6198,8;28,84
6202,5;28,84
6206,3;28,84
6210,0;28,84
6213,8;28,84
6217,5;28,83
6221,3;28,81
6225,0;28,80
6228,8;28,82
6232,5;28,85
6236,3;28,87
6240,0;28,85
6243,8;28,82
6247,5;28,80
6251,3;28,78
6255,0;28,76
6258,8;28,75
6262,5;28,75
6266,3;28,77
6270,0;28,80
6273,8;28,82
6277,5;28,83
6281,3;28,83
6285,0;28,82
6288,8;28,82
6292,5;28,81
6296,3;28,80
6300,0;28,79
6303,8;28,79
6307,5;28,81
6311,3;28,83
6315,0;28,84
6318,8;28,83
6322,5;28,82
6326,3;28,81
6330,0;28,81
6333,8;28,81
6337,5;28,79
6341,3;28,76
6345,0;28,74
6348,8;28,74
6352,5;28,74
6356,3;28,76
6360,0;28,78
6363,8;28,79
6367,5;28,77
6371,3;28,75
6375,0;28,75
6378,8;28,76
6382,5;28,78
6386,3;28,80
6390,0;28,82
6393,8;28,83
6397,5;28,84
6401,3;28,87
6405,0;28,91
6408,8;28,92
6412,5;28,88
6416,3;28,84
6420,0;28,82
6423,8;28,80
6427,5;28,79
6431,3;28,79
6435,0;28,80
6438,8;28,81
6442,5;28,80
6446,3;28,79
6450,0;28,77
6453,8;28,75
6457,5;28,73
6461,3;28,73
6465,0;28,73
6468,8;28,74
6472,5;28,74
6476,3;28,75
6480,0;28,75
6483,8;28,74
6487,5;28,72
6491,3;28,70
6495,0;28,71
6498,8;28,73
6502,5;28,73
6506,3;28,72
6510,0;28,72
6513,8;28,72
6517,5;28,73
6521,3;28,74
6525,0;28,74
6528,8;28,75
6532,5;28,74
6536,3;28,74
6540,0;28,73
6543,8;28,71
6547,5;28,69
6551,3;28,67
6555,0;28,65
6558,8;28,66
6562,5;28,69
6566,3;28,72
6570,0;28,74
6573,8;28,75
6577,5;28,75
6581,3;28,73
6585,0;28,72
6588,8;28,71
6592,5;28,71
6596,3;28,71
6600,0;28,72
6603,8;28,72
6607,5;28,72
6611,3;28,71
6615,0;28,70
6618,8;28,71
6622,5;28,73
6626,3;28,74
6630,0;28,75
6633,8;28,74
6637,5;28,74
6641,3;28,76
6645,0;28,75
6648,8;28,72
6652,5;28,69
6656,3;28,67
6660,0;28,65
6663,8;28,62
6667,5;28,61
6671,3;28,62
6675,0;28,65
6678,8;28,67
6682,5;28,67
6686,3;28,64
6690,0;28,60
6693,8;28,55
6697,5;28,52
6701,3;28,49
6705,0;28,48
6708,8;28,47
6712,5;28,47
6716,3;28,47
6720,0;28,48
6723,8;28,48
6727,5;28,47
6731,3;28,46
6735,0;28,43
6738,8;28,41
6742,5;28,40
6746,3;28,41
6750,0;28,43
6753,8;28,46
6757,5;28,49
6761,3;28,50
6765,0;28,50
6768,8;28,49
6772,5;28,47
6776,3;28,45
6780,0;28,44
6783,8;28,40
6787,5;28,34
6791,3;28,29
6795,0;28,26
6798,8;28,25
6802,5;28,25
6806,3;28,25
6810,0;28,26
6813,8;28,26
6817,5;28,26
6821,3;28,25
6825,0;28,23
6828,8;28,20
6832,5;28,17
6836,3;28,14
6840,0;28,13
6843,8;28,13
6847,5;28,14
6851,3;28,15
6855,0;28,14
6858,8;28,11
6862,5;28,07
6866,3;28,04
6870,0;28,02
6873,8;28,02
6877,5;28,04
6881,3;28,06
6885,0;28,07
6888,8;28,08
6892,5;28,06
6896,3;28,04
6900,0;28,01
6903,8;27,98
6907,5;27,96
6911,3;27,96
6915,0;27,97
6918,8;27,98
6922,5;27,98
6926,3;27,97
6930,0;27,96
6933,8;27,97
6937,5;27,99
6941,3;28,01
6945,0;28,03
6948,8;28,05
6952,5;28,05
6956,3;28,05
6960,0;28,03
6963,8;28,00
6967,5;27,98
6971,3;27,98
6975,0;27,99
6978,8;27,99
6982,5;27,98
6986,3;27,96
6990,0;27,95
6993,8;27,95
6997,5;27,97
7001,3;28,00
7005,0;28,02
7008,8;28,03
7012,5;28,03
7016,3;28,03
7020,0;28,02
7023,8;28,01
7027,5;28,01
7031,3;28,02
7035,0;28,03
7038,8;28,04
7042,5;28,03
7046,3;28,02
7050,0;28,01
7053,8;28,02
7057,5;28,02
7061,3;28,02
7065,0;28,01
7068,8;28,00
7072,5;28,00
7076,3;28,01
7080,0;28,01
7083,8;28,01
7087,5;28,01
7091,3;28,02
7095,0;28,04
7098,8;28,05
7102,5;28,04
7106,3;28,02
7110,0;27,99
7113,8;27,98
7117,5;27,98
7121,3;28,00
7125,0;28,02
7128,8;28,03
7132,5;28,03
7136,3;28,03
7140,0;28,02
7143,8;28,02
7147,5;28,01
7151,3;28,00
7155,0;27,99
7158,8;27,98
7162,5;27,96
7166,3;27,95
7170,0;27,94
7173,8;27,93
7177,5;27,93
7181,3;27,93
7185,0;27,93
7188,8;27,93
7192,5;27,93
7196,3;27,92
7200,0;27,92
7203,8;27,93
7207,5;27,93
7211,3;27,93
7215,0;27,93
7218,8;27,93
7222,5;27,93
7226,3;27,93
7230,0;27,94
7233,8;27,94
7237,5;27,95
7241,3;27,95
7245,0;27,95
7248,8;27,94
7252,5;27,92
7256,3;27,90
7260,0;27,88
7263,8;27,85
7267,5;27,84
7271,3;27,84
7275,0;27,84
7278,8;27,85
7282,5;27,86
7286,3;27,86
7290,0;27,86
7293,8;27,86
7297,5;27,86
7301,3;27,86
7305,0;27,87
7308,8;27,88
7312,5;27,89
7316,3;27,91
7320,0;27,93
7323,8;27,96
7327,5;27,97
7331,3;27,98
7335,0;27,98
7338,8;27,97
7342,5;27,96
7346,3;27,96
7350,0;27,96
7353,8;27,96
7357,5;27,96
7361,3;27,96
7365,0;27,96
7368,8;27,96
7372,5;27,96
7376,3;27,96
7380,0;27,96
7383,8;27,95
7387,5;27,94
7391,3;27,94
7395,0;27,96
7398,8;27,97
7402,5;27,98
7406,3;27,98
7410,0;27,96
7413,8;27,94
7417,5;27,93
7421,3;27,92
7425,0;27,92
7428,8;27,92
7432,5;27,92
7436,3;27,91
7440,0;27,91
7443,8;27,92
7447,5;27,93
7451,3;27,94
7455,0;27,94
7458,8;27,94
7462,5;27,92
7466,3;27,91
7470,0;27,90
7473,8;27,91
7477,5;27,92
7481,3;27,93
7485,0;27,93
7488,8;27,92
7492,5;27,91
7496,3;27,89
7500,0;27,88
7503,8;27,88
7507,5;27,88
7511,3;27,89
7515,0;27,90
7518,8;27,90
7522,5;27,90
7526,3;27,89
7530,0;27,88
7533,8;27,88
7537,5;27,88
7541,3;27,88
7545,0;27,88
7548,8;27,88
7552,5;27,88
7556,3;27,87
7560,0;27,86
7563,8;27,85
7567,5;27,85
7571,3;27,85
7575,0;27,84
7578,8;27,84
7582,5;27,85
7586,3;27,85
7590,0;27,85
7593,8;27,85
7597,5;27,84
7601,3;27,83
7605,0;27,81
7608,8;27,79
7612,5;27,78
7616,3;27,78
7620,0;27,78
7623,8;27,79
7627,5;27,79
7631,3;27,80
7635,0;27,81
7638,8;27,82
7642,5;27,82
7646,3;27,81
7650,0;27,79
7653,8;27,77
7657,5;27,74
7661,3;27,72
7665,0;27,71
7668,8;27,71
7672,5;27,71
7676,3;27,71
7680,0;27,70
7683,8;27,69
7687,5;27,67
7691,3;27,66
7695,0;27,66
7698,8;27,66
7702,5;27,67
7706,3;27,69
7710,0;27,70
7713,8;27,71
7717,5;27,72
7721,3;27,73
7725,0;27,73
7728,8;27,73
7732,5;27,72
7736,3;27,71
7740,0;27,69
7743,8;27,67
7747,5;27,66
7751,3;27,66
7755,0;27,66
7758,8;27,66
7762,5;27,66
7766,3;27,66
7770,0;27,64
7773,8;27,62
7777,5;27,59
7781,3;27,58
7785,0;27,56
7788,8;27,55
7792,5;27,55
7796,3;27,55
7800,0;27,54
7803,8;27,54
7807,5;27,54
7811,3;27,54
7815,0;27,54
7818,8;27,55
7822,5;27,55
7826,3;27,56
7830,0;27,57
7833,8;27,58
7837,5;27,59
7841,3;27,60
7845,0;27,60
7848,8;27,61
7852,5;27,61
7856,3;27,60
7860,0;27,60
7863,8;27,59
7867,5;27,58
7871,3;27,58
7875,0;27,57
7878,8;27,57
7882,5;27,56
7886,3;27,56
7890,0;27,55
7893,8;27,55
7897,5;27,55
7901,3;27,55
7905,0;27,55
7908,8;27,55
7912,5;27,56
7916,3;27,56
7920,0;27,55
7923,8;27,55
7927,5;27,54
7931,3;27,54
7935,0;27,53
7938,8;27,53
7942,5;27,53
7946,3;27,53
7950,0;27,54
7953,8;27,54
7957,5;27,53
7961,3;27,53
7965,0;27,52
7968,8;27,52
7972,5;27,51
7976,3;27,50
7980,0;27,49
7983,8;27,49
7987,5;27,48
7991,3;27,47
7995,0;27,47
7998,8;27,47
8002,5;27,47
8006,3;27,47
8010,0;27,47
8013,8;27,47
8017,5;27,47
8021,3;27,48
8025,0;27,49
8028,8;27,50
8032,5;27,52
8036,3;27,53
8040,0;27,53
8043,8;27,53
8047,5;27,52
8051,3;27,51
8055,0;27,50
8058,8;27,49
8062,5;27,49
8066,3;27,48
8070,0;27,48
8073,8;27,48
8077,5;27,48
8081,3;27,49
8085,0;27,51
8088,8;27,53
8092,5;27,55
8096,3;27,56
8100,0;27,57
8103,8;27,56
8107,5;27,55
8111,3;27,52
8115,0;27,50
8118,8;27,47
8122,5;27,46
8126,3;27,45
8130,0;27,46
8133,8;27,48
8137,5;27,50
8141,3;27,53
8145,0;27,55
8148,8;27,57
8152,5;27,58
8156,3;27,58
8160,0;27,58
8163,8;27,57
8167,5;27,55
8171,3;27,54
8175,0;27,53
8178,8;27,53
8182,5;27,52
8186,3;27,51
8190,0;27,50
8193,8;27,49
8197,5;27,47
8201,3;27,45
8205,0;27,44
8208,8;27,43
8212,5;27,44
8216,3;27,45
8220,0;27,47
8223,8;27,49
8227,5;27,51
8231,3;27,52
8235,0;27,52
8238,8;27,52
8242,5;27,51
8246,3;27,50
8250,0;27,49
8253,8;27,48
8257,5;27,47
8261,3;27,46
8265,0;27,45
8268,8;27,44
8272,5;27,43
8276,3;27,42
8280,0;27,40
8283,8;27,39
8287,5;27,38
8291,3;27,37
8295,0;27,37
8298,8;27,37
8302,5;27,36
8306,3;27,37
8310,0;27,37
8313,8;27,38
8317,5;27,39
8321,3;27,40
8325,0;27,42
8328,8;27,43
8332,5;27,45
8336,3;27,47
8340,0;27,48
8343,8;27,50
8347,5;27,51
8351,3;27,51
8355,0;27,50
8358,8;27,49
8362,5;27,47
8366,3;27,44
8370,0;27,42
8373,8;27,39
8377,5;27,37
8381,3;27,35
8385,0;27,34
8388,8;27,33
8392,5;27,33
8396,3;27,33
8400,0;27,34
8403,8;27,35
8407,5;27,36
8411,3;27,38
8415,0;27,39
8418,8;27,39
8422,5;27,38
8426,3;27,37
8430,0;27,35
8433,8;27,34
8437,5;27,32
8441,3;27,31
8445,0;27,31
8448,8;27,30
8452,5;27,29
8456,3;27,28
8460,0;27,27
8463,8;27,25
8467,5;27,23
8471,3;27,21
8475,0;27,20
8478,8;27,20
8482,5;27,20
8486,3;27,21
8490,0;27,22
8493,8;27,23
8497,5;27,23
8501,3;27,23
8505,0;27,23
8508,8;27,22
8512,5;27,21
8516,3;27,20
8520,0;27,19
8523,8;27,17
8527,5;27,16
8531,3;27,15
8535,0;27,14
8538,8;27,13
8542,5;27,13
8546,3;27,13
8550,0;27,15
8553,8;27,17
8557,5;27,20
8561,3;27,22
8565,0;27,24
8568,8;27,25
8572,5;27,25
8576,3;27,23
8580,0;27,21
8583,8;27,19
8587,5;27,17
8591,3;27,16
8595,0;27,16
8598,8;27,17
8602,5;27,18
8606,3;27,20
8610,0;27,21
8613,8;27,22
8617,5;27,24
8621,3;27,25
8625,0;27,27
8628,8;27,27
8632,5;27,27
8636,3;27,26
8640,0;27,24
8643,8;27,21
8647,5;27,17
8651,3;27,13
8655,0;27,10
8658,8;27,07
8662,5;27,06
8666,3;27,05
8670,0;27,05
8673,8;27,05
8677,5;27,05
8681,3;27,05
8685,0;27,05
8688,8;27,05
8692,5;27,05
8696,3;27,05
8700,0;27,04
8703,8;27,03
8707,5;27,01
8711,3;26,99
8715,0;26,97
8718,8;26,95
8722,5;26,94
8726,3;26,94
8730,0;26,95
8733,8;26,96
8737,5;26,97
8741,3;26,98
8745,0;26,99
8748,8;27,00
8752,5;27,00
8756,3;27,00
8760,0;26,99
8763,8;26,98
8767,5;26,97
8771,3;26,95
8775,0;26,93
8778,8;26,90
8782,5;26,88
8786,3;26,86
8790,0;26,84
8793,8;26,82
8797,5;26,80
8801,3;26,79
8805,0;26,77
8808,8;26,76
8812,5;26,75
8816,3;26,75
8820,0;26,75
8823,8;26,76
8827,5;26,78
8831,3;26,80
8835,0;26,84
8838,8;26,88
8842,5;26,93
8846,3;26,97
8850,0;27,01
8853,8;27,03
8857,5;27,03
8861,3;27,02
8865,0;27,00
8868,8;26,97
8872,5;26,94
8876,3;26,91
8880,0;26,89
8883,8;26,88
8887,5;26,87
8891,3;26,87
8895,0;26,88
8898,8;26,88
8902,5;26,89
8906,3;26,90
8910,0;26,91
8913,8;26,92
8917,5;26,94
8921,3;26,94
8925,0;26,95
8928,8;26,94
8932,5;26,93
8936,3;26,92
8940,0;26,91
8943,8;26,90
8947,5;26,90
8951,3;26,91
8955,0;26,92
8958,8;26,94
8962,5;26,95
8966,3;26,96
8970,0;26,96
8973,8;26,95
8977,5;26,94
8981,3;26,93
8985,0;26,93
8988,8;26,92
8992,5;26,91
8996,3;26,91
9000,0;26,90
9003,8;26,88
9007,5;26,86
9011,3;26,83
9015,0;26,80
9018,8;26,77
9022,5;26,75
9026,3;26,74
9030,0;26,74
9033,8;26,75
9037,5;26,76
9041,3;26,78
9045,0;26,79
9048,8;26,81
9052,5;26,82
9056,3;26,83
9060,0;26,84
9063,8;26,84
9067,5;26,84
9071,3;26,83
9075,0;26,82
9078,8;26,80
9082,5;26,78
9086,3;26,75
9090,0;26,71
9093,8;26,68
9097,5;26,65
9101,3;26,63
9105,0;26,62
9108,8;26,63
9112,5;26,64
9116,3;26,67
9120,0;26,69
9123,8;26,72
9127,5;26,74
9131,3;26,75
9135,0;26,76
9138,8;26,77
9142,5;26,78
9146,3;26,79
9150,0;26,79
9153,8;26,79
9157,5;26,79
9161,3;26,77
9165,0;26,75
9168,8;26,72
9172,5;26,69
9176,3;26,67
9180,0;26,65
9183,8;26,64
9187,5;26,64
9191,3;26,66
9195,0;26,69
9198,8;26,72
9202,5;26,75
9206,3;26,78
9210,0;26,80
9213,8;26,81
9217,5;26,82
9221,3;26,83
9225,0;26,84
9228,8;26,84
9232,5;26,85
9236,3;26,86
9240,0;26,87
9243,8;26,88
9247,5;26,89
9251,3;26,89
9255,0;26,88
9258,8;26,86
9262,5;26,84
9266,3;26,81
9270,0;26,78
9273,8;26,75
9277,5;26,72
9281,3;26,70
9285,0;26,68
9288,8;26,66
9292,5;26,66
9296,3;26,65
9300,0;26,65
9303,8;26,65
9307,5;26,66
9311,3;26,66
9315,0;26,67
9318,8;26,67
9322,5;26,68
9326,3;26,68
9330,0;26,67
9333,8;26,67
9337,5;26,66
9341,3;26,64
9345,0;26,62
9348,8;26,61
9352,5;26,59
9356,3;26,58
9360,0;26,58
9363,8;26,58
9367,5;26,59
9371,3;26,61
9375,0;26,63
9378,8;26,65
9382,5;26,67
9386,3;26,69
9390,0;26,71
9393,8;26,72
9397,5;26,73
9401,3;26,73
9405,0;26,72
9408,8;26,72
9412,5;26,71
9416,3;26,71
9420,0;26,70
9423,8;26,70
9427,5;26,70
9431,3;26,70
9435,0;26,70
9438,8;26,69
9442,5;26,69
9446,3;26,67
9450,0;26,66
9453,8;26,65
9457,5;26,63
9461,3;26,62
9465,0;26,61
9468,8;26,60
9472,5;26,59
9476,3;26,58
9480,0;26,57
9483,8;26,56
9487,5;26,55
9491,3;26,55
9495,0;26,55
9498,8;26,55
9502,5;26,55
9506,3;26,57
9510,0;26,58
9513,8;26,60
9517,5;26,62
9521,3;26,63
9525,0;26,64
9528,8;26,65
9532,5;26,65
9536,3;26,65
9540,0;26,65
9543,8;26,65
9547,5;26,65
9551,3;26,65
9555,0;26,66
9558,8;26,67
9562,5;26,68
9566,3;26,69
9570,0;26,70
9573,8;26,70
9577,5;26,70
9581,3;26,69
9585,0;26,67
9588,8;26,65
9592,5;26,63
9596,3;26,61
9600,0;26,59
9603,8;26,57
9607,5;26,55
9611,3;26,55
9615,0;26,54
9618,8;26,54
9622,5;26,55
9626,3;26,56
9630,0;26,57
9633,8;26,58
9637,5;26,60
9641,3;26,62
9645,0;26,64
9648,8;26,66
9652,5;26,68
9656,3;26,70
9660,0;26,72
9663,8;26,73
9667,5;26,74
9671,3;26,74
9675,0;26,74
9678,8;26,74
9682,5;26,73
9686,3;26,72
9690,0;26,70
9693,8;26,68
9697,5;26,67
9701,3;26,66
9705,0;26,65
9708,8;26,64
9712,5;26,64
9716,3;26,64
9720,0;26,64
9723,8;26,65
9727,5;26,66
9731,3;26,67
9735,0;26,68
9738,8;26,69
9742,5;26,71
9746,3;26,72
9750,0;26,73
9753,8;26,74
9757,5;26,75
9761,3;26,76
9765,0;26,77
9768,8;26,78
9772,5;26,78
9776,3;26,79
9780,0;26,79
9783,8;26,78
9787,5;26,77
9791,3;26,76
9795,0;26,75
9798,8;26,73
9802,5;26,71
9806,3;26,69
9810,0;26,67
9813,8;26,66
9817,5;26,65
9821,3;26,64
9825,0;26,64
9828,8;26,63
9832,5;26,63
9836,3;26,64
9840,0;26,64
9843,8;26,64
9847,5;26,65
9851,3;26,65
9855,0;26,65
9858,8;26,66
9862,5;26,66
9866,3;26,66
9870,0;26,66
9873,8;26,66
9877,5;26,66
9881,3;26,65
9885,0;26,65
9888,8;26,65
9892,5;26,64
9896,3;26,64
9900,0;26,64
9903,8;26,64
9907,5;26,64
9911,3;26,65
9915,0;26,65
9918,8;26,65
9922,5;26,66
9926,3;26,66
9930,0;26,67
9933,8;26,68
9937,5;26,69
9941,3;26,70
9945,0;26,72
9948,8;26,72
9952,5;26,73
9956,3;26,74
9960,0;26,74
9963,8;26,74
9967,5;26,73
9971,3;26,73
9975,0;26,73
9978,8;26,73
9982,5;26,73
9986,3;26,74
9990,0;26,74
9993,8;26,75
9997,5;26,76
10001,3;26,77
10005,0;26,77
10008,8;26,78
10012,5;26,78
10016,3;26,78
10020,0;26,77
10023,8;26,77
10027,5;26,77
10031,3;26,76
10035,0;26,75
10038,8;26,74
10042,5;26,73
10046,3;26,72
10050,0;26,71
10053,8;26,70
10057,5;26,69
10061,3;26,68
10065,0;26,67
10068,8;26,67
10072,5;26,66
10076,3;26,65
10080,0;26,64
10083,8;26,63
10087,5;26,62
10091,3;26,61
10095,0;26,60
10098,8;26,59
10102,5;26,58
10106,3;26,57
10110,0;26,57
10113,8;26,57
10117,5;26,58
10121,3;26,59
10125,0;26,60
10128,8;26,61
10132,5;26,61
10136,3;26,62
10140,0;26,63
10143,8;26,63
10147,5;26,63
10151,3;26,63
10155,0;26,63
10158,8;26,63
10162,5;26,64
10166,3;26,64
10170,0;26,64
10173,8;26,65
10177,5;26,65
10181,3;26,65
10185,0;26,65
10188,8;26,65
10192,5;26,65
10196,3;26,64
10200,0;26,63
10203,8;26,62
10207,5;26,61
10211,3;26,61
10215,0;26,60
10218,8;26,60
10222,5;26,60
10226,3;26,60
10230,0;26,61
10233,8;26,62
10237,5;26,63
10241,3;26,64
10245,0;26,64
10248,8;26,65
10252,5;26,64
10256,3;26,64
10260,0;26,63
10263,8;26,61
10267,5;26,59
10271,3;26,58
10275,0;26,56
10278,8;26,54
10282,5;26,53
10286,3;26,52
10290,0;26,52
10293,8;26,52
10297,5;26,53
10301,3;26,54
10305,0;26,55
10308,8;26,57
10312,5;26,58
10316,3;26,60
10320,0;26,61
10323,8;26,62
10327,5;26,63
10331,3;26,63
10335,0;26,64
10338,8;26,63
10342,5;26,63
10346,3;26,62
10350,0;26,61
10353,8;26,60
10357,5;26,59
10361,3;26,58
10365,0;26,57
10368,8;26,57
10372,5;26,56
10376,3;26,56
10380,0;26,57
10383,8;26,57
10387,5;26,58
10391,3;26,59
10395,0;26,60
10398,8;26,60
10402,5;26,61
10406,3;26,61
10410,0;26,61
10413,8;26,60
10417,5;26,60
10421,3;26,59
10425,0;26,59
10428,8;26,59
10432,5;26,59
10436,3;26,59
10440,0;26,59
10443,8;26,59
10447,5;26,59
10451,3;26,59
10455,0;26,59
10458,8;26,58
10462,5;26,58
10466,3;26,57
10470,0;26,57
10473,8;26,57
10477,5;26,57
10481,3;26,57
10485,0;26,58
10488,8;26,59
10492,5;26,60
10496,3;26,62
10500,0;26,63
10503,8;26,64
10507,5;26,64
10511,3;26,64
10515,0;26,64
10518,8;26,63
10522,5;26,62
10526,3;26,60
10530,0;26,59
10533,8;26,57
10537,5;26,56
10541,3;26,55
10545,0;26,53
10548,8;26,53
10552,5;26,52
10556,3;26,51
10560,0;26,51
10563,8;26,51
10567,5;26,51
10571,3;26,52
10575,0;26,53
10578,8;26,54
10582,5;26,56
10586,3;26,58
10590,0;26,60
10593,8;26,62
10597,5;26,64
10601,3;26,67
10605,0;26,69
10608,8;26,70
10612,5;26,71
10616,3;26,72
10620,0;26,72
10623,8;26,72
10627,5;26,71
10631,3;26,70
10635,0;26,70
10638,8;26,69
10642,5;26,68
10646,3;26,67
10650,0;26,66
10653,8;26,65
10657,5;26,64
10661,3;26,63
10665,0;26,62
10668,8;26,62
10672,5;26,61
10676,3;26,61
10680,0;26,60
10683,8;26,60
10687,5;26,59
10691,3;26,59
10695,0;26,59
10698,8;26,59
10702,5;26,58
10706,3;26,58
10710,0;26,57
10713,8;26,57
10717,5;26,56
10721,3;26,55
10725,0;26,54
10728,8;26,54
10732,5;26,53
10736,3;26,53
10740,0;26,53
10743,8;26,53
10747,5;26,53
10751,3;26,53
10755,0;26,53
10758,8;26,53
10762,5;26,53
10766,3;26,52
10770,0;26,52
10773,8;26,51
10777,5;26,50
10781,3;26,49
10785,0;26,48
10788,8;26,47
10792,5;26,46
10796,3;26,46
10800,0;26,47
10803,8;26,47
10807,5;26,48
10811,3;26,50
10815,0;26,51
10818,8;26,52
10822,5;26,54
10826,3;26,55
10830,0;26,55
10833,8;26,56
10837,5;26,56
10841,3;26,56
10845,0;26,55
10848,8;26,54
10852,5;26,54
10856,3;26,53
10860,0;26,52
10863,8;26,51
10867,5;26,50
10871,3;26,49
10875,0;26,48
10878,8;26,47
10882,5;26,47
10886,3;26,46
10890,0;26,46
10893,8;26,45
10897,5;26,45
10901,3;26,45
10905,0;26,45
10908,8;26,45
10912,5;26,45
10916,3;26,45
10920,0;26,45
10923,8;26,45
10927,5;26,44
10931,3;26,44
10935,0;26,43
10938,8;26,41
10942,5;26,40
10946,3;26,38
10950,0;26,36
10953,8;26,35
10957,5;26,33
10961,3;26,32
10965,0;26,31
10968,8;26,31
10972,5;26,31
10976,3;26,32
10980,0;26,32
10983,8;26,33
10987,5;26,35
10991,3;26,36
10995,0;26,37
10998,8;26,37
11002,5;26,38
11006,3;26,38
11010,0;26,38
11013,8;26,38
11017,5;26,37
11021,3;26,37
11025,0;26,36
11028,8;26,35
11032,5;26,34
11036,3;26,33
11040,0;26,32
11043,8;26,31
11047,5;26,29
11051,3;26,28
11055,0;26,26
11058,8;26,25
11062,5;26,23
11066,3;26,22
11070,0;26,21
11073,8;26,21
11077,5;26,21
11081,3;26,21
11085,0;26,22
11088,8;26,23
11092,5;26,24
11096,3;26,25
11100,0;26,26
11103,8;26,28
11107,5;26,29
11111,3;26,30
11115,0;26,31
11118,8;26,31
11122,5;26,32
11126,3;26,33
11130,0;26,34
11133,8;26,35
11137,5;26,36
11141,3;26,37
11145,0;26,38
11148,8;26,39
11152,5;26,39
11156,3;26,39
11160,0;26,39
11163,8;26,39
11167,5;26,38
11171,3;26,37
11175,0;26,37
11178,8;26,36
11182,5;26,35
11186,3;26,35
11190,0;26,34
11193,8;26,34
11197,5;26,34
11201,3;26,34
11205,0;26,34
11208,8;26,34
11212,5;26,34
11216,3;26,33
11220,0;26,33
11223,8;26,32
11227,5;26,31
11231,3;26,29
11235,0;26,28
11238,8;26,27
11242,5;26,26
11246,3;26,25
11250,0;26,24
11253,8;26,23
11257,5;26,23
11261,3;26,23
11265,0;26,23
11268,8;26,24
11272,5;26,24
11276,3;26,25
11280,0;26,25
11283,8;26,25
11287,5;26,26
11291,3;26,26
11295,0;26,27
11298,8;26,27
11302,5;26,28
11306,3;26,28
11310,0;26,29
11313,8;26,29
11317,5;26,30
11321,3;26,30
11325,0;26,31
11328,8;26,31
11332,5;26,32
11336,3;26,32
11340,0;26,33
11343,8;26,33
11347,5;26,33
11351,3;26,34
11355,0;26,34
11358,8;26,35
11362,5;26,36
11366,3;26,36
11370,0;26,37
11373,8;26,38
11377,5;26,39
11381,3;26,39
11385,0;26,40
11388,8;26,40
11392,5;26,41
11396,3;26,41
11400,0;26,41
11403,8;26,40
11407,5;26,40
11411,3;26,40
11415,0;26,39
11418,8;26,39
11422,5;26,39
11426,3;26,38
11430,0;26,38
11433,8;26,38
11437,5;26,37
11441,3;26,37
11445,0;26,37
11448,8;26,37
11452,5;26,36
11456,3;26,36
11460,0;26,35
11463,8;26,35
11467,5;26,34
11471,3;26,34
11475,0;26,34
11478,8;26,35
11482,5;26,35
11486,3;26,36
11490,0;26,38
11493,8;26,40
11497,5;26,42
11501,3;26,45
11505,0;26,47
11508,8;26,50
11512,5;26,52
11516,3;26,54
11520,0;26,56
11523,8;26,57
11527,5;26,58
11531,3;26,59
11535,0;26,59
11538,8;26,59
11542,5;26,58
11546,3;26,57
11550,0;26,56
11553,8;26,55
11557,5;26,54
11561,3;26,53
11565,0;26,52
11568,8;26,52
11572,5;26,51
11576,3;26,51
11580,0;26,50
11583,8;26,50
11587,5;26,50
11591,3;26,50
11595,0;26,50
11598,8;26,49
11602,5;26,49
11606,3;26,49
11610,0;26,49
11613,8;26,49
11617,5;26,49
11621,3;26,50
11625,0;26,50
11628,8;26,50
11632,5;26,51
11636,3;26,51
11640,0;26,52
11643,8;26,53
11647,5;26,54
11651,3;26,55
11655,0;26,56
11658,8;26,57
11662,5;26,59
11666,3;26,60
11670,0;26,60
11673,8;26,61
11677,5;26,62
11681,3;26,63
11685,0;26,64
11688,8;26,65
11692,5;26,65
11696,3;26,66
11700,0;26,67
11703,8;26,68
11707,5;26,69
11711,3;26,70
11715,0;26,72
11718,8;26,73
11722,5;26,74
11726,3;26,75
11730,0;26,76
11733,8;26,78
11737,5;26,79
11741,3;26,80
11745,0;26,82
11748,8;26,83
11752,5;26,84
11756,3;26,85
11760,0;26,86
11763,8;26,87
11767,5;26,88
11771,3;26,88
11775,0;26,88
11778,8;26,88
11782,5;26,87
11786,3;26,86
11790,0;26,85
11793,8;26,84
11797,5;26,83
11801,3;26,81
11805,0;26,80
11808,8;26,79
11812,5;26,78
11816,3;26,77
11820,0;26,76
11823,8;26,76
11827,5;26,75
11831,3;26,75
11835,0;26,75
11838,8;26,75
11842,5;26,75
11846,3;26,75
11850,0;26,75
11853,8;26,75
11857,5;26,74
11861,3;26,74
11865,0;26,73
11868,8;26,73
11872,5;26,72
11876,3;26,72
11880,0;26,72
11883,8;26,71
11887,5;26,71
11891,3;26,71
11895,0;26,71
11898,8;26,71
11902,5;26,71
11906,3;26,72
11910,0;26,72
11913,8;26,73
11917,5;26,73
11921,3;26,74
11925,0;26,75
11928,8;26,76
11932,5;26,77
11936,3;26,79
11940,0;26,80
11943,8;26,81
11947,5;26,83
11951,3;26,84
11955,0;26,85
11958,8;26,87
11962,5;26,88
11966,3;26,89
11970,0;26,89
11973,8;26,90
11977,5;26,90
11981,3;26,90
11985,0;26,90
11988,8;26,89
11992,5;26,89
11996,3;26,88
12000,0;26,87
12003,8;26,85
12007,5;26,84
12011,3;26,83
12015,0;26,81
12018,8;26,80
12022,5;26,79
12026,3;26,78
12030,0;26,77
12033,8;26,76
12037,5;26,75
12041,3;26,75
12045,0;26,74
12048,8;26,74
12052,5;26,74
12056,3;26,74
12060,0;26,75
12063,8;26,75
12067,5;26,75
12071,3;26,75
12075,0;26,75
12078,8;26,74
12082,5;26,74
12086,3;26,73
12090,0;26,72
12093,8;26,71
12097,5;26,70
12101,3;26,68
12105,0;26,67
12108,8;26,65
12112,5;26,63
12116,3;26,62
12120,0;26,60
12123,8;26,58
12127,5;26,57
12131,3;26,56
12135,0;26,55
12138,8;26,54
12142,5;26,54
12146,3;26,54
12150,0;26,54
12153,8;26,54
12157,5;26,55
12161,3;26,56
12165,0;26,57
12168,8;26,59
12172,5;26,60
12176,3;26,61
12180,0;26,63
12183,8;26,64
12187,5;26,65
12191,3;26,66
12195,0;26,67
12198,8;26,67
12202,5;26,68
12206,3;26,68
12210,0;26,67
12213,8;26,67
12217,5;26,67
12221,3;26,66
12225,0;26,65
12228,8;26,65
12232,5;26,64
12236,3;26,63
12240,0;26,62
12243,8;26,61
12247,5;26,60
12251,3;26,59
12255,0;26,58
12258,8;26,57
12262,5;26,56
12266,3;26,55
12270,0;26,55
12273,8;26,54
12277,5;26,53
12281,3;26,53
12285,0;26,53
12288,8;26,53
12292,5;26,53
12296,3;26,54
12300,0;26,54
12303,8;26,55
12307,5;26,56
12311,3;26,57
12315,0;26,59
12318,8;26,60
12322,5;26,62
12326,3;26,64
12330,0;26,66
12333,8;26,68
12337,5;26,69
12341,3;26,71
12345,0;26,73
12348,8;26,75
12352,5;26,77
12356,3;26,78
12360,0;26,80
12363,8;26,81
12367,5;26,82
12371,3;26,83
12375,0;26,84
12378,8;26,84
12382,5;26,85
12386,3;26,85
12390,0;26,86
12393,8;26,86
12397,5;26,87
12401,3;26,87
12405,0;26,88
12408,8;26,88
12412,5;26,89
12416,3;26,89
12420,0;26,90
12423,8;26,91
12427,5;26,92
12431,3;26,93
12435,0;26,94
12438,8;26,95
12442,5;26,95
12446,3;26,96
12450,0;26,97
12453,8;26,97
12457,5;26,98
12461,3;26,98
12465,0;26,98
12468,8;26,98
12472,5;26,98
12476,3;26,98
12480,0;26,97
12483,8;26,97
12487,5;26,96
12491,3;26,96
12495,0;26,95
12498,8;26,94
12502,5;26,93
12506,3;26,93
12510,0;26,92
12513,8;26,92
12517,5;26,91
12521,3;26,91
12525,0;26,91
12528,8;26,91
12532,5;26,92
12536,3;26,92
12540,0;26,93
12543,8;26,93
12547,5;26,94
12551,3;26,94
12555,0;26,95
12558,8;26,95
12562,5;26,95
12566,3;26,95
12570,0;26,95
12573,8;26,94
12577,5;26,94
12581,3;26,93
12585,0;26,93
12588,8;26,93
12592,5;26,92
12596,3;26,92
12600,0;26,92
12603,8;26,92
12607,5;26,93
12611,3;26,93
12615,0;26,94
12618,8;26,94
12622,5;26,94
12626,3;26,95
12630,0;26,95
12633,8;26,95
12637,5;26,94
12641,3;26,94
12645,0;26,93
12648,8;26,92
12652,5;26,91
12656,3;26,90
12660,0;26,89
12663,8;26,88
12667,5;26,87
12671,3;26,87
12675,0;26,86
12678,8;26,85
12682,5;26,85
12686,3;26,85
12690,0;26,85
12693,8;26,84
12697,5;26,84
12701,3;26,84
12705,0;26,84
12708,8;26,83
12712,5;26,83
12716,3;26,82
12720,0;26,81
12723,8;26,80
12727,5;26,80
12731,3;26,79
12735,0;26,78
12738,8;26,78
12742,5;26,77
12746,3;26,77
12750,0;26,78
12753,8;26,78
12757,5;26,78
12761,3;26,79
12765,0;26,80
12768,8;26,81
12772,5;26,81
12776,3;26,82
12780,0;26,82
12783,8;26,82
12787,5;26,82
12791,3;26,82
12795,0;26,81
12798,8;26,81
12802,5;26,80
12806,3;26,78
12810,0;26,77
12813,8;26,76
12817,5;26,75
12821,3;26,73
12825,0;26,72
12828,8;26,72
12832,5;26,71
12836,3;26,71
12840,0;26,71
12843,8;26,71
12847,5;26,71
12851,3;26,72
12855,0;26,73
12858,8;26,73
12862,5;26,74
12866,3;26,75
12870,0;26,76
12873,8;26,76
12877,5;26,77
12881,3;26,78
12885,0;26,78
12888,8;26,79
12892,5;26,79
12896,3;26,79
12900,0;26,79
12903,8;26,80
12907,5;26,80
12911,3;26,80
12915,0;26,80
12918,8;26,81
12922,5;26,81
12926,3;26,82
12930,0;26,82
12933,8;26,83
12937,5;26,84
12941,3;26,84
12945,0;26,85
12948,8;26,85
12952,5;26,86
12956,3;26,86
12960,0;26,87
12963,8;26,87
12967,5;26,87
12971,3;26,87
12975,0;26,87
12978,8;26,87
12982,5;26,87
12986,3;26,87
12990,0;26,87
12993,8;26,87
12997,5;26,86
13001,3;26,86
13005,0;26,86
13008,8;26,86
13012,5;26,86
13016,3;26,87
13020,0;26,87
13023,8;26,87
13027,5;26,87
13031,3;26,86
13035,0;26,86
13038,8;26,86
13042,5;26,86
13046,3;26,85
13050,0;26,84
13053,8;26,84
13057,5;26,83
13061,3;26,82
13065,0;26,81
13068,8;26,80
13072,5;26,80
13076,3;26,79
13080,0;26,78
13083,8;26,78
13087,5;26,78
13091,3;26,77
13095,0;26,77
13098,8;26,77
13102,5;26,77
13106,3;26,77
13110,0;26,77
13113,8;26,78
13117,5;26,78
13121,3;26,78
13125,0;26,78
13128,8;26,78
13132,5;26,78
13136,3;26,78
13140,0;26,78
13143,8;26,79
13147,5;26,79
13151,3;26,79
13155,0;26,79
13158,8;26,80
13162,5;26,80
13166,3;26,81
13170,0;26,81
13173,8;26,82
13177,5;26,82
13181,3;26,83
13185,0;26,83
13188,8;26,84
13192,5;26,84
13196,3;26,85
13200,0;26,85
13203,8;26,85
13207,5;26,85
13211,3;26,85
13215,0;26,85
13218,8;26,85
13222,5;26,85
13226,3;26,85
13230,0;26,85
13233,8;26,85
13237,5;26,85
13241,3;26,85
13245,0;26,85
13248,8;26,85
13252,5;26,85
13256,3;26,85
13260,0;26,85
13263,8;26,85
13267,5;26,86
13271,3;26,86
13275,0;26,86
13278,8;26,86
13282,5;26,86
13286,3;26,87
13290,0;26,87
13293,8;26,87
13297,5;26,87
13301,3;26,88
13305,0;26,88
13308,8;26,88
13312,5;26,88
13316,3;26,88
13320,0;26,88
13323,8;26,88
13327,5;26,88
13331,3;26,88
13335,0;26,88
13338,8;26,87
13342,5;26,86
13346,3;26,85
13350,0;26,84
13353,8;26,83
13357,5;26,82
13361,3;26,81
13365,0;26,79
13368,8;26,77
13372,5;26,76
13376,3;26,74
13380,0;26,73
13383,8;26,72
13387,5;26,71
13391,3;26,70
13395,0;26,69
13398,8;26,68
13402,5;26,68
13406,3;26,68
13410,0;26,68
13413,8;26,68
13417,5;26,68
13421,3;26,69
13425,0;26,69
13428,8;26,69
13432,5;26,70
13436,3;26,70
13440,0;26,70
13443,8;26,71
13447,5;26,71
13451,3;26,71
13455,0;26,71
13458,8;26,70
13462,5;26,70
13466,3;26,70
13470,0;26,69
13473,8;26,69
13477,5;26,68
13481,3;26,68
13485,0;26,67
13488,8;26,67
13492,5;26,67
13496,3;26,66
13500,0;26,66
13503,8;26,66
13507,5;26,66
13511,3;26,67
13515,0;26,67
13518,8;26,67
13522,5;26,67
13526,3;26,68
13530,0;26,68
13533,8;26,68
13537,5;26,68
13541,3;26,69
13545,0;26,69
13548,8;26,69
13552,5;26,68
13556,3;26,68
13560,0;26,68
13563,8;26,68
13567,5;26,68
13571,3;26,68
13575,0;26,68
13578,8;26,68
13582,5;26,69
13586,3;26,69
13590,0;26,70
13593,8;26,70
13597,5;26,71
13601,3;26,72
13605,0;26,74
13608,8;26,75
13612,5;26,76
13616,3;26,77
13620,0;26,79
13623,8;26,80
13627,5;26,82
13631,3;26,83
13635,0;26,84
13638,8;26,85
13642,5;26,86
13646,3;26,87
13650,0;26,87
13653,8;26,88
13657,5;26,89
13661,3;26,89
13665,0;26,90
13668,8;26,90
13672,5;26,90
13676,3;26,91
13680,0;26,91
13683,8;26,91
13687,5;26,91
13691,3;26,92
13695,0;26,92
13698,8;26,92
13702,5;26,92
13706,3;26,92
13710,0;26,92
13713,8;26,92
13717,5;26,92
13721,3;26,92
13725,0;26,92
13728,8;26,92
13732,5;26,92
13736,3;26,92
13740,0;26,93
13743,8;26,93
13747,5;26,94
13751,3;26,94
13755,0;26,95
13758,8;26,96
13762,5;26,98
13766,3;26,99
13770,0;27,01
13773,8;27,03
13777,5;27,05
13781,3;27,06
13785,0;27,08
13788,8;27,10
13792,5;27,12
13796,3;27,14
13800,0;27,15
13803,8;27,16
13807,5;27,18
13811,3;27,18
13815,0;27,19
13818,8;27,20
13822,5;27,20
13826,3;27,20
13830,0;27,20
13833,8;27,20
13837,5;27,20
13841,3;27,20
13845,0;27,20
13848,8;27,20
13852,5;27,20
13856,3;27,20
13860,0;27,20
13863,8;27,20
13867,5;27,20
13871,3;27,20
13875,0;27,21
13878,8;27,21
13882,5;27,21
13886,3;27,22
13890,0;27,22
13893,8;27,22
13897,5;27,23
13901,3;27,23
13905,0;27,23
13908,8;27,23
13912,5;27,24
13916,3;27,24
13920,0;27,24
13923,8;27,25
13927,5;27,25
13931,3;27,25
13935,0;27,26
13938,8;27,27
13942,5;27,28
13946,3;27,29
13950,0;27,30
13953,8;27,31
13957,5;27,32
13961,3;27,34
13965,0;27,35
13968,8;27,37
13972,5;27,38
13976,3;27,40
13980,0;27,41
13983,8;27,42
13987,5;27,43
13991,3;27,45
13995,0;27,45
13998,8;27,46
14002,5;27,47
14006,3;27,48
14010,0;27,48
14013,8;27,49
14017,5;27,50
14021,3;27,50
14025,0;27,51
14028,8;27,52
14032,5;27,53
14036,3;27,54
14040,0;27,55
14043,8;27,56
14047,5;27,57
14051,3;27,58
14055,0;27,60
14058,8;27,61
14062,5;27,63
14066,3;27,64
14070,0;27,66
14073,8;27,67
14077,5;27,68
14081,3;27,70
14085,0;27,71
14088,8;27,72
14092,5;27,73
14096,3;27,74
14100,0;27,75
14103,8;27,76
14107,5;27,77
14111,3;27,78
14115,0;27,78
14118,8;27,79
14122,5;27,80
14126,3;27,80
14130,0;27,81
14133,8;27,81
14137,5;27,82
14141,3;27,82
14145,0;27,82
14148,8;27,83
14152,5;27,83
14156,3;27,83
14160,0;27,82
14163,8;27,82
14167,5;27,81
14171,3;27,81
14175,0;27,80
14178,8;27,78
14182,5;27,77
14186,3;27,76
14190,0;27,74
14193,8;27,73
14197,5;27,71
14201,3;27,69
14205,0;27,68
14208,8;27,66
14212,5;27,65
14216,3;27,64
14220,0;27,63
14223,8;27,63
14227,5;27,63
14231,3;27,63
14235,0;27,63
14238,8;27,64
14242,5;27,64
14246,3;27,65
14250,0;27,66
14253,8;27,68
14257,5;27,69
14261,3;27,70
14265,0;27,72
14268,8;27,73
14272,5;27,74
14276,3;27,75
14280,0;27,76
14283,8;27,77
14287,5;27,77
14291,3;27,78
14295,0;27,78
14298,8;27,78
14302,5;27,79
14306,3;27,79
14310,0;27,79
14313,8;27,79
14317,5;27,79
14321,3;27,79
14325,0;27,79
14328,8;27,79
14332,5;27,79
14336,3;27,79
14340,0;27,79
14343,8;27,80
14347,5;27,80
14351,3;27,80
14355,0;27,81
14358,8;27,81
14362,5;27,82
14366,3;27,82
14370,0;27,82
14373,8;27,83
14377,5;27,83
14381,3;27,84
14385,0;27,84
14388,8;27,84
14392,5;27,85
14396,3;27,85
14400,0;27,85
14403,8;27,86
14407,5;27,87
14411,3;27,87
14415,0;27,88
14418,8;27,89
14422,5;27,90
14426,3;27,91
14430,0;27,92
14433,8;27,93
14437,5;27,94
14441,3;27,95
14445,0;27,96
14448,8;27,97
14452,5;27,98
14456,3;27,99
14460,0;27,99
14463,8;27,99
14467,5;28,00
14471,3;28,00
14475,0;28,00
14478,8;27,99
14482,5;27,99
14486,3;27,98
14490,0;27,98
14493,8;27,97
14497,5;27,97
14501,3;27,96
14505,0;27,96
14508,8;27,95
14512,5;27,95
14516,3;27,95
14520,0;27,95
14523,8;27,96
14527,5;27,96
14531,3;27,97
14535,0;27,98
14538,8;27,99
14542,5;28,00
14546,3;28,01
14550,0;28,03
14553,8;28,04
14557,5;28,05
14561,3;28,06
14565,0;28,07
14568,8;28,07
14572,5;28,07
14576,3;28,07
14580,0;28,07
14583,8;28,07
14587,5;28,06
14591,3;28,05
14595,0;28,04
14598,8;28,03
14602,5;28,01
14606,3;28,00
14610,0;27,99
14613,8;27,98
14617,5;27,97
14621,3;27,97
14625,0;27,96
14628,8;27,96
14632,5;27,96
14636,3;27,96
14640,0;27,97
14643,8;27,98
14647,5;27,98
14651,3;27,99
14655,0;28,00
14658,8;28,01
14662,5;28,02
14666,3;28,04
14670,0;28,04
14673,8;28,05
14677,5;28,06
14681,3;28,06
14685,0;28,07
14688,8;28,07
14692,5;28,07
14696,3;28,07
14700,0;28,07
14703,8;28,07
14707,5;28,07
14711,3;28,06
14715,0;28,06
14718,8;28,06
14722,5;28,06
14726,3;28,06
14730,0;28,07
14733,8;28,07
14737,5;28,07
14741,3;28,08
14745,0;28,08
14748,8;28,09
14752,5;28,09
14756,3;28,10
14760,0;28,11
14763,8;28,11
14767,5;28,11
14771,3;28,12
14775,0;28,12
14778,8;28,12
14782,5;28,12
14786,3;28,12
14790,0;28,12
14793,8;28,12
14797,5;28,12
14801,3;28,12
14805,0;28,11
14808,8;28,11
14812,5;28,11
14816,3;28,11
14820,0;28,11
14823,8;28,11
14827,5;28,12
14831,3;28,12
14835,0;28,13
14838,8;28,13
14842,5;28,14
14846,3;28,15
14850,0;28,16
14853,8;28,17
14857,5;28,18
14861,3;28,19
14865,0;28,20
14868,8;28,21
14872,5;28,21
14876,3;28,22
14880,0;28,22
14883,8;28,22
14887,5;28,22
14891,3;28,21
14895,0;28,20
14898,8;28,18
14902,5;28,17
14906,3;28,14
14910,0;28,11
14913,8;28,08
14917,5;28,04
14921,3;27,99
14925,0;27,94
14928,8;27,89
14932,5;27,84
14936,3;27,77
14940,0;27,70
14943,8;27,63
14947,5;27,56
14951,3;27,48
14955,0;27,42
14958,8;27,35
14962,5;27,29
14966,3;27,22
14970,0;27,16
14973,8;27,11
14977,5;27,07
14981,3;27,03
14985,0;26,99
14988,8;26,97
14992,5;26,95
14996,3;26,94
15000,0;26,93
15003,8;26,94
15007,5;26,95
15011,3;26,98
15015,0;27,01
15018,8;27,04
15022,5;27,09
15026,3;27,15
15030,0;27,22
15033,8;27,29
15037,5;27,37
15041,3;27,45
15045,0;27,53
15048,8;27,61
15052,5;27,70
15056,3;27,78
15060,0;27,86
15063,8;27,94
15067,5;28,01
15071,3;28,07
15075,0;28,13
15078,8;28,18
15082,5;28,22
15086,3;28,26
15090,0;28,29
15093,8;28,31
15097,5;28,33
15101,3;28,34
15105,0;28,34
15108,8;28,34
15112,5;28,34
15116,3;28,33
15120,0;28,32
15123,8;28,31
15127,5;28,30
15131,3;28,28
15135,0;28,27
15138,8;28,26
15142,5;28,25
15146,3;28,24
15150,0;28,23
15153,8;28,22
15157,5;28,22
15161,3;28,21
15165,0;28,22
15168,8;28,22
15172,5;28,22
15176,3;28,23
15180,0;28,24
15183,8;28,24
15187,5;28,25
15191,3;28,26
15195,0;28,27
15198,8;28,28
15202,5;28,29
15206,3;28,29
15210,0;28,30
15213,8;28,30
15217,5;28,30
15221,3;28,30
15225,0;28,30
15228,8;28,30
15232,5;28,29
15236,3;28,28
15240,0;28,28
15243,8;28,27
15247,5;28,26
15251,3;28,25
15255,0;28,25
15258,8;28,24
15262,5;28,24
15266,3;28,23
15270,0;28,23
15273,8;28,23
15277,5;28,23
15281,3;28,23
15285,0;28,24
15288,8;28,25
15292,5;28,25
15296,3;28,26
15300,0;28,27
15303,8;28,28
15307,5;28,28
15311,3;28,29
15315,0;28,30
15318,8;28,31
15322,5;28,31
15326,3;28,31
15330,0;28,32
15333,8;28,32
15337,5;28,31
15341,3;28,31
15345,0;28,31
15348,8;28,31
15352,5;28,30
15356,3;28,29
15360,0;28,29
15363,8;28,28
15367,5;28,28
15371,3;28,27
15375,0;28,27
15378,8;28,27
15382,5;28,27
15386,3;28,26
15390,0;28,26
15393,8;28,26
15397,5;28,27
15401,3;28,27
15405,0;28,27
15408,8;28,28
15412,5;28,28
15416,3;28,28
15420,0;28,28
15423,8;28,28
15427,5;28,28
15431,3;28,27
15435,0;28,27
15438,8;28,26
15442,5;28,26
15446,3;28,25
15450,0;28,24
15453,8;28,22
15457,5;28,21
15461,3;28,20
15465,0;28,19
15468,8;28,18
15472,5;28,17
15476,3;28,16
15480,0;28,15
15483,8;28,14
15487,5;28,13
15491,3;28,13
15495,0;28,13
15498,8;28,13
15502,5;28,13
15506,3;28,13
15510,0;28,13
15513,8;28,13
15517,5;28,14
15521,3;28,14
15525,0;28,15
15528,8;28,16
15532,5;28,16
15536,3;28,17
15540,0;28,17
15543,8;28,17
15547,5;28,17
15551,3;28,17
15555,0;28,17
15558,8;28,17
15562,5;28,17
15566,3;28,16
15570,0;28,16
15573,8;28,15
15577,5;28,15
15581,3;28,14
15585,0;28,14
15588,8;28,14
15592,5;28,14
15596,3;28,14
15600,0;28,14
15603,8;28,14
15607,5;28,15
15611,3;28,15
15615,0;28,16
15618,8;28,17
15622,5;28,19
15626,3;28,20
15630,0;28,21
15633,8;28,22
15637,5;28,23
15641,3;28,25
15645,0;28,26
15648,8;28,27
15652,5;28,28
15656,3;28,29
15660,0;28,30
15663,8;28,30
15667,5;28,30
15671,3;28,30
15675,0;28,29
15678,8;28,29
15682,5;28,28
15686,3;28,27
15690,0;28,26
15693,8;28,24
15697,5;28,23
15701,3;28,21
15705,0;28,20
15708,8;28,19
15712,5;28,17
15716,3;28,16
15720,0;28,15
15723,8;28,14
15727,5;28,13
15731,3;28,12
15735,0;28,12
15738,8;28,12
15742,5;28,12
15746,3;28,12
15750,0;28,12
15753,8;28,12
15757,5;28,13
15761,3;28,13
15765,0;28,14
15768,8;28,14
15772,5;28,15
15776,3;28,16
15780,0;28,16
15783,8;28,16
15787,5;28,16
15791,3;28,16
15795,0;28,16
15798,8;28,16
15802,5;28,16
15806,3;28,15
15810,0;28,15
15813,8;28,14
15817,5;28,13
15821,3;28,12
15825,0;28,11
15828,8;28,10
15832,5;28,09
15836,3;28,08
15840,0;28,07
15843,8;28,06
15847,5;28,05
15851,3;28,03
15855,0;28,02
15858,8;28,01
15862,5;27,99
15866,3;27,98
15870,0;27,96
15873,8;27,94
15877,5;27,92
15881,3;27,90
15885,0;27,88
15888,8;27,85
15892,5;27,82
15896,3;27,79
15900,0;27,75
15903,8;27,71
15907,5;27,67
15911,3;27,62
15915,0;27,57
15918,8;27,52
15922,5;27,46
15926,3;27,41
15930,0;27,35
15933,8;27,29
15937,5;27,23
15941,3;27,17
15945,0;27,11
15948,8;27,04
15952,5;26,98
15956,3;26,92
15960,0;26,86
15963,8;26,80
15967,5;26,75
15971,3;26,69
15975,0;26,64
15978,8;26,59
15982,5;26,54
15986,3;26,49
15990,0;26,45
15993,8;26,40
15997,5;26,36
16001,3;26,32
16005,0;26,28
16008,8;26,25
16012,5;26,21
16016,3;26,17
16020,0;26,14
16023,8;26,11
16027,5;26,08
16031,3;26,04
16035,0;26,01
16038,8;25,98
16042,5;25,96
16046,3;25,93
16050,0;25,90
16053,8;25,88
16057,5;25,85
16061,3;25,83
16065,0;25,81
16068,8;25,79
16072,5;25,78
16076,3;25,76
16080,0;25,75
16083,8;25,74
16087,5;25,73
16091,3;25,72
16095,0;25,71
16098,8;25,71
16102,5;25,70
16106,3;25,70
16110,0;25,70
16113,8;25,69
16117,5;25,69
16121,3;25,69
16125,0;25,68
16128,8;25,68
16132,5;25,68
16136,3;25,67
16140,0;25,67
16143,8;25,66
16147,5;25,65
16151,3;25,65
16155,0;25,64
16158,8;25,63
16162,5;25,62
16166,3;25,61
16170,0;25,60
16173,8;25,59
16177,5;25,58
16181,3;25,57
16185,0;25,56
16188,8;25,56
16192,5;25,55
16196,3;25,55
16200,0;25,54
16203,8;25,54
16207,5;25,54
16211,3;25,54
16215,0;25,54
16218,8;25,54
16222,5;25,55
16226,3;25,56
16230,0;25,56
16233,8;25,57
16237,5;25,58
16241,3;25,59
16245,0;25,60
16248,8;25,61
16252,5;25,62
16256,3;25,63
16260,0;25,64
16263,8;25,65
16267,5;25,65
16271,3;25,66
16275,0;25,66
16278,8;25,66
16282,5;25,66
16286,3;25,66
16290,0;25,66
16293,8;25,66
16297,5;25,66
16301,3;25,65
16305,0;25,64
16308,8;25,63
16312,5;25,62
16316,3;25,61
16320,0;25,60
16323,8;25,59
16327,5;25,58
16331,3;25,56
16335,0;25,55
16338,8;25,53
16342,5;25,52
16346,3;25,51
16350,0;25,50
16353,8;25,49
16357,5;25,47
16361,3;25,46
16365,0;25,46
16368,8;25,45
16372,5;25,44
16376,3;25,43
16380,0;25,43
16383,8;25,42
16387,5;25,42
16391,3;25,41
16395,0;25,41
16398,8;25,41
16402,5;25,40
16406,3;25,40
16410,0;25,40
16413,8;25,40
16417,5;25,40
16421,3;25,40
16425,0;25,40
16428,8;25,41
16432,5;25,41
16436,3;25,41
16440,0;25,42
16443,8;25,42
16447,5;25,43
16451,3;25,44
16455,0;25,45
16458,8;25,47
16462,5;25,48
16466,3;25,50
16470,0;25,52
16473,8;25,54
16477,5;25,56
16481,3;25,58
16485,0;25,61
16488,8;25,64
16492,5;25,67
16496,3;25,70
16500,0;25,74
16503,8;25,77
16507,5;25,81
16511,3;25,84
16515,0;25,87
16518,8;25,91
16522,5;25,94
16526,3;25,98
16530,0;26,01
16533,8;26,04
16537,5;26,07
16541,3;26,10
16545,0;26,12
16548,8;26,15
16552,5;26,17
16556,3;26,19
16560,0;26,21
16563,8;26,22
16567,5;26,24
16571,3;26,25
16575,0;26,27
16578,8;26,28
16582,5;26,28
16586,3;26,29
16590,0;26,31
16593,8;26,32
16597,5;26,33
16601,3;26,34
16605,0;26,35
16608,8;26,37
16612,5;26,38
16616,3;26,40
16620,0;26,41
16623,8;26,43
16627,5;26,46
16631,3;26,48
16635,0;26,50
16638,8;26,53
16642,5;26,56
16646,3;26,59
16650,0;26,61
16653,8;26,64
16657,5;26,68
16661,3;26,71
16665,0;26,74
16668,8;26,77
16672,5;26,80
16676,3;26,83
16680,0;26,86
16683,8;26,89
16687,5;26,92
16691,3;26,95
16695,0;26,98
16698,8;27,00
16702,5;27,03
16706,3;27,05
16710,0;27,08
16713,8;27,10
16717,5;27,12
16721,3;27,14
16725,0;27,16
16728,8;27,19
16732,5;27,21
16736,3;27,23
16740,0;27,25
16743,8;27,27
16747,5;27,29
16751,3;27,31
16755,0;27,33
16758,8;27,35
16762,5;27,37
16766,3;27,39
16770,0;27,41
16773,8;27,43
16777,5;27,45
16781,3;27,46
16785,0;27,48
16788,8;27,49
16792,5;27,50
16796,3;27,51
16800,0;27,52
16803,8;27,53
16807,5;27,53
16811,3;27,54
16815,0;27,54
16818,8;27,54
16822,5;27,54
16826,3;27,54
16830,0;27,54
16833,8;27,53
16837,5;27,53
16841,3;27,52
16845,0;27,52
16848,8;27,52
16852,5;27,52
16856,3;27,51
16860,0;27,51
16863,8;27,51
16867,5;27,51
16871,3;27,51
16875,0;27,52
16878,8;27,53
16882,5;27,54
16886,3;27,55
16890,0;27,57
16893,8;27,59
16897,5;27,60
16901,3;27,62
16905,0;27,65
16908,8;27,67
16912,5;27,70
16916,3;27,73
16920,0;27,75
16923,8;27,78
16927,5;27,81
16931,3;27,84
16935,0;27,86
16938,8;27,89
16942,5;27,92
16946,3;27,94
16950,0;27,97
16953,8;27,99
16957,5;28,01
16961,3;28,03
16965,0;28,05
16968,8;28,07
16972,5;28,08
16976,3;28,10
16980,0;28,11
16983,8;28,12
16987,5;28,14
16991,3;28,15
16995,0;28,16
16998,8;28,17
17002,5;28,17
17006,3;28,18
17010,0;28,19
17013,8;28,20
17017,5;28,21
17021,3;28,22
17025,0;28,23
17028,8;28,24
17032,5;28,25
17036,3;28,26
17040,0;28,27
17043,8;28,28
17047,5;28,29
17051,3;28,29
17055,0;28,30
17058,8;28,31
17062,5;28,32
17066,3;28,33
17070,0;28,34
17073,8;28,34
17077,5;28,35
17081,3;28,35
17085,0;28,36
17088,8;28,36
17092,5;28,36
17096,3;28,37
17100,0;28,37
17103,8;28,37
17107,5;28,37
17111,3;28,37
17115,0;28,37
17118,8;28,37
17122,5;28,37
17126,3;28,38
17130,0;28,38
17133,8;28,38
17137,5;28,39
17141,3;28,39
17145,0;28,40
17148,8;28,41
17152,5;28,41
17156,3;28,42
17160,0;28,43
17163,8;28,44
17167,5;28,45
17171,3;28,47
17175,0;28,48
17178,8;28,49
17182,5;28,51
17186,3;28,52
17190,0;28,53
17193,8;28,55
17197,5;28,56
17201,3;28,57
17205,0;28,58
17208,8;28,59
17212,5;28,60
17216,3;28,61
17220,0;28,62
17223,8;28,62
17227,5;28,63
17231,3;28,63
17235,0;28,63
17238,8;28,63
17242,5;28,63
17246,3;28,63
17250,0;28,63
17253,8;28,63
17257,5;28,63
17261,3;28,63
17265,0;28,63
17268,8;28,63
17272,5;28,63
17276,3;28,64
17280,0;28,64
17283,8;28,65
17287,5;28,65
17291,3;28,66
17295,0;28,67
17298,8;28,68
17302,5;28,69
17306,3;28,70
17310,0;28,71
17313,8;28,72
17317,5;28,73
17321,3;28,74
17325,0;28,75
17328,8;28,76
17332,5;28,77
17336,3;28,78
17340,0;28,78
17343,8;28,79
17347,5;28,79
17351,3;28,79
17355,0;28,78
17358,8;28,78
17362,5;28,77
17366,3;28,77
17370,0;28,76
17373,8;28,75
17377,5;28,73
17381,3;28,71
17385,0;28,70
17388,8;28,68
17392,5;28,66
17396,3;28,64
17400,0;28,62
17403,8;28,61
17407,5;28,59
17411,3;28,57
17415,0;28,56
17418,8;28,54
17422,5;28,53
17426,3;28,52
17430,0;28,51
17433,8;28,51
17437,5;28,51
17441,3;28,51
17445,0;28,51
17448,8;28,51
17452,5;28,52
17456,3;28,53
17460,0;28,54
17463,8;28,54
17467,5;28,55
17471,3;28,57
17475,0;28,58
17478,8;28,60
17482,5;28,61
17486,3;28,62
17490,0;28,63
17493,8;28,64
17497,5;28,65
17501,3;28,65
17505,0;28,66
17508,8;28,66
17512,5;28,66
17516,3;28,66
17520,0;28,66
17523,8;28,66
17527,5;28,65
17531,3;28,64
17535,0;28,63
17538,8;28,62
17542,5;28,61
17546,3;28,59
17550,0;28,58
17553,8;28,57
17557,5;28,56
17561,3;28,55
17565,0;28,54
17568,8;28,53
17572,5;28,52
17576,3;28,51
17580,0;28,51
17583,8;28,50
17587,5;28,50
17591,3;28,50
17595,0;28,50
17598,8;28,50
17602,5;28,50
17606,3;28,51
17610,0;28,51
17613,8;28,51
17617,5;28,51
17621,3;28,52
17625,0;28,52
17628,8;28,52
17632,5;28,53
17636,3;28,53
17640,0;28,53
17643,8;28,53
17647,5;28,52
17651,3;28,52
17655,0;28,51
17658,8;28,50
17662,5;28,49
17666,3;28,47
17670,0;28,46
17673,8;28,45
17677,5;28,43
17681,3;28,42
17685,0;28,40
17688,8;28,38
17692,5;28,36
17696,3;28,34
17700,0;28,32
17703,8;28,31
17707,5;28,29
17711,3;28,28
17715,0;28,27
17718,8;28,27
17722,5;28,26
17726,3;28,26
17730,0;28,26
17733,8;28,26
17737,5;28,27
17741,3;28,28
17745,0;28,29
17748,8;28,30
17752,5;28,32
17756,3;28,35
17760,0;28,37
17763,8;28,39
17767,5;28,42
17771,3;28,44
17775,0;28,47
17778,8;28,50
17782,5;28,52
17786,3;28,55
17790,0;28,58
17793,8;28,61
17797,5;28,64
17801,3;28,66
17805,0;28,68
17808,8;28,70
17812,5;28,71
17816,3;28,73
17820,0;28,74
17823,8;28,75
17827,5;28,76
17831,3;28,77
17835,0;28,77
17838,8;28,78
17842,5;28,78
17846,3;28,78
17850,0;28,78
17853,8;28,77
17857,5;28,77
17861,3;28,77
17865,0;28,76
17868,8;28,76
17872,5;28,76
17876,3;28,76
17880,0;28,77
17883,8;28,77
17887,5;28,77
17891,3;28,77
17895,0;28,77
17898,8;28,78
17902,5;28,78
17906,3;28,79
17910,0;28,80
17913,8;28,81
17917,5;28,83
17921,3;28,84
17925,0;28,85
17928,8;28,86
17932,5;28,87
17936,3;28,88
17940,0;28,89
17943,8;28,90
17947,5;28,91
17951,3;28,92
17955,0;28,93
17958,8;28,94
17962,5;28,94
17966,3;28,95
17970,0;28,95
17973,8;28,95
17977,5;28,95
17981,3;28,95
17985,0;28,94
17988,8;28,94
17992,5;28,94
17996,3;28,94
18000,0;28,93
18003,8;28,93
18007,5;28,92
18011,3;28,92
18015,0;28,92
18018,8;28,91
18022,5;28,91
18026,3;28,91
18030,0;28,91
18033,8;28,91
18037,5;28,91
18041,3;28,91
18045,0;28,91
18048,8;28,92
18052,5;28,92
18056,3;28,93
18060,0;28,93
18063,8;28,93
18067,5;28,94
18071,3;28,94
18075,0;28,95
18078,8;28,95
18082,5;28,96
18086,3;28,96
18090,0;28,96
18093,8;28,96
18097,5;28,96
18101,3;28,95
18105,0;28,95
18108,8;28,94
18112,5;28,93
18116,3;28,92
18120,0;28,91
18123,8;28,90
18127,5;28,89
18131,3;28,87
18135,0;28,86
18138,8;28,84
18142,5;28,82
18146,3;28,80
18150,0;28,78
18153,8;28,76
18157,5;28,75
18161,3;28,73
18165,0;28,72
18168,8;28,71
18172,5;28,70
18176,3;28,69
18180,0;28,68
18183,8;28,67
18187,5;28,66
18191,3;28,66
18195,0;28,66
18198,8;28,67
18202,5;28,68
18206,3;28,68
18210,0;28,70
18213,8;28,71
18217,5;28,72
18221,3;28,74
18225,0;28,75
18228,8;28,76
18232,5;28,78
18236,3;28,80
18240,0;28,82
18243,8;28,84
18247,5;28,86
18251,3;28,87
18255,0;28,89
18258,8;28,90
18262,5;28,91
18266,3;28,92
18270,0;28,92
18273,8;28,93
18277,5;28,93
18281,3;28,93
18285,0;28,94
18288,8;28,93
18292,5;28,93
18296,3;28,93
18300,0;28,92
18303,8;28,91
18307,5;28,90
18311,3;28,89
18315,0;28,88
18318,8;28,87
18322,5;28,86
18326,3;28,85
18330,0;28,85
18333,8;28,85
18337,5;28,84
18341,3;28,84
18345,0;28,84
18348,8;28,84
18352,5;28,84
18356,3;28,85
18360,0;28,86
18363,8;28,87
18367,5;28,88
18371,3;28,90
18375,0;28,92
18378,8;28,95
18382,5;28,97
18386,3;29,00
18390,0;29,02
18393,8;29,05
18397,5;29,07
18401,3;29,10
18405,0;29,13
18408,8;29,16
18412,5;29,19
18416,3;29,21
18420,0;29,24
18423,8;29,26
18427,5;29,28
18431,3;29,30
18435,0;29,31
18438,8;29,33
18442,5;29,34
18446,3;29,34
18450,0;29,35
18453,8;29,35
18457,5;29,35
18461,3;29,35
18465,0;29,35
18468,8;29,34
18472,5;29,32
18476,3;29,31
18480,0;29,29
18483,8;29,27
18487,5;29,26
18491,3;29,24
18495,0;29,22
18498,8;29,21
18502,5;29,19
18506,3;29,17
18510,0;29,16
18513,8;29,14
18517,5;29,12
18521,3;29,11
18525,0;29,10
18528,8;29,09
18532,5;29,08
18536,3;29,08
18540,0;29,08
18543,8;29,08
18547,5;29,08
18551,3;29,09
18555,0;29,09
18558,8;29,10
18562,5;29,10
18566,3;29,11
18570,0;29,12
18573,8;29,13
18577,5;29,14
18581,3;29,16
18585,0;29,17
18588,8;29,18
18592,5;29,19
18596,3;29,20
18600,0;29,21
18603,8;29,22
18607,5;29,22
18611,3;29,23
18615,0;29,23
18618,8;29,23
18622,5;29,24
18626,3;29,24
18630,0;29,24
18633,8;29,24
18637,5;29,24
18641,3;29,23
18645,0;29,23
18648,8;29,22
18652,5;29,21
18656,3;29,20
18660,0;29,20
18663,8;29,19
18667,5;29,19
18671,3;29,19
18675,0;29,18
18678,8;29,18
18682,5;29,18
18686,3;29,18
18690,0;29,18
18693,8;29,18
18697,5;29,19
18701,3;29,19
18705,0;29,20
18708,8;29,20
18712,5;29,21
18716,3;29,23
18720,0;29,24
18723,8;29,25
18727,5;29,26
18731,3;29,27
18735,0;29,29
18738,8;29,30
18742,5;29,31
18746,3;29,32
18750,0;29,33
18753,8;29,34
18757,5;29,35
18761,3;29,35
18765,0;29,36
18768,8;29,37
18772,5;29,37
18776,3;29,37
18780,0;29,37
18783,8;29,37
18787,5;29,37
18791,3;29,37
18795,0;29,36
18798,8;29,36
18802,5;29,36
18806,3;29,35
18810,0;29,35
18813,8;29,35
18817,5;29,34
18821,3;29,34
18825,0;29,33
18828,8;29,33
18832,5;29,33
18836,3;29,33
18840,0;29,33
18843,8;29,33
18847,5;29,33
18851,3;29,34
18855,0;29,35
18858,8;29,36
18862,5;29,37
18866,3;29,38
18870,0;29,39
18873,8;29,41
18877,5;29,42
18881,3;29,43
18885,0;29,45
18888,8;29,46
18892,5;29,48
18896,3;29,50
18900,0;29,52
18903,8;29,53
18907,5;29,55
18911,3;29,56
18915,0;29,57
18918,8;29,58
18922,5;29,59
18926,3;29,59
18930,0;29,60
18933,8;29,60
18937,5;29,60
18941,3;29,60
18945,0;29,60
18948,8;29,60
18952,5;29,59
18956,3;29,59
18960,0;29,58
18963,8;29,57
18967,5;29,55
18971,3;29,54
18975,0;29,52
18978,8;29,51
18982,5;29,50
18986,3;29,49
18990,0;29,48
18993,8;29,47
18997,5;29,47
19001,3;29,46
19005,0;29,45
19008,8;29,45
19012,5;29,44
19016,3;29,44
19020,0;29,44
19023,8;29,45
19027,5;29,46
19031,3;29,47
19035,0;29,48
19038,8;29,50
19042,5;29,51
19046,3;29,53
19050,0;29,55
19053,8;29,57
19057,5;29,59
19061,3;29,61
19065,0;29,63
19068,8;29,65
19072,5;29,67
19076,3;29,70
19080,0;29,72
19083,8;29,74
19087,5;29,76
19091,3;29,78
19095,0;29,79
19098,8;29,81
19102,5;29,82
19106,3;29,82
19110,0;29,83
19113,8;29,83
19117,5;29,83
19121,3;29,83
19125,0;29,83
19128,8;29,83
19132,5;29,82
19136,3;29,81
19140,0;29,80
19143,8;29,78
19147,5;29,77
19151,3;29,75
19155,0;29,73
19158,8;29,71
19162,5;29,69
19166,3;29,67
19170,0;29,66
19173,8;29,64
19177,5;29,63
19181,3;29,61
19185,0;29,60
19188,8;29,58
19192,5;29,57
19196,3;29,56
19200,0;29,55
19203,8;29,55
19207,5;29,54
19211,3;29,54
19215,0;29,54
19218,8;29,55
19222,5;29,55
19226,3;29,56
19230,0;29,57
19233,8;29,58
19237,5;29,59
19241,3;29,60
19245,0;29,61
19248,8;29,62
19252,5;29,64
19256,3;29,66
19260,0;29,67
19263,8;29,69
19267,5;29,70
19271,3;29,72
19275,0;29,73
19278,8;29,74
19282,5;29,75
19286,3;29,76
19290,0;29,77
19293,8;29,77
19297,5;29,77
19301,3;29,78
19305,0;29,78
19308,8;29,78
19312,5;29,78
19316,3;29,78
19320,0;29,77
19323,8;29,77
19327,5;29,76
19331,3;29,75
19335,0;29,74
19338,8;29,73
19342,5;29,72
19346,3;29,71
19350,0;29,70
19353,8;29,69
19357,5;29,69
19361,3;29,68
19365,0;29,68
19368,8;29,68
19372,5;29,67
19376,3;29,67
19380,0;29,67
19383,8;29,67
19387,5;29,68
19391,3;29,68
19395,0;29,69
19398,8;29,71
19402,5;29,72
19406,3;29,74
19410,0;29,75
19413,8;29,77
19417,5;29,79
19421,3;29,81
19425,0;29,83
19428,8;29,85
19432,5;29,87
19436,3;29,89
19440,0;29,92
19443,8;29,94
19447,5;29,96
19451,3;29,99
19455,0;30,01
19458,8;30,03
19462,5;30,05
19466,3;30,06
19470,0;30,08
19473,8;30,09
19477,5;30,10
19481,3;30,11
19485,0;30,12
19488,8;30,12
19492,5;30,13
19496,3;30,13
19500,0;30,13
19503,8;30,14
19507,5;30,14
19511,3;30,14
19515,0;30,13
19518,8;30,13
19522,5;30,12
19526,3;30,12
19530,0;30,11
19533,8;30,10
19537,5;30,10
19541,3;30,09
19545,0;30,09
19548,8;30,09
19552,5;30,09
19556,3;30,09
19560,0;30,09
19563,8;30,09
19567,5;30,09
19571,3;30,10
19575,0;30,10
19578,8;30,10
19582,5;30,11
19586,3;30,12
19590,0;30,13
19593,8;30,14
19597,5;30,15
19601,3;30,16
19605,0;30,17
19608,8;30,18
19612,5;30,20
19616,3;30,20
19620,0;30,21
19623,8;30,22
19627,5;30,22
19631,3;30,23
19635,0;30,23
19638,8;30,24
19642,5;30,24
19646,3;30,24
19650,0;30,24
19653,8;30,23
19657,5;30,23
19661,3;30,22
19665,0;30,21
19668,8;30,20
19672,5;30,18
19676,3;30,16
19680,0;30,15
19683,8;30,13
19687,5;30,11
19691,3;30,09
19695,0;30,07
19698,8;30,06
19702,5;30,04
19706,3;30,02
19710,0;30,00
19713,8;29,98
19717,5;29,97
19721,3;29,95
19725,0;29,93
19728,8;29,92
19732,5;29,91
19736,3;29,91
19740,0;29,90
19743,8;29,90
19747,5;29,91
19751,3;29,91
19755,0;29,92
19758,8;29,93
19762,5;29,94
19766,3;29,95
19770,0;29,97
19773,8;29,98
19777,5;30,00
19781,3;30,02
19785,0;30,04
19788,8;30,06
19792,5;30,09
19796,3;30,12
19800,0;30,14
19803,8;30,17
19807,5;30,20
19811,3;30,22
19815,0;30,24
19818,8;30,26
19822,5;30,28
19826,3;30,30
19830,0;30,32
19833,8;30,33
19837,5;30,35
19841,3;30,36
19845,0;30,37
19848,8;30,38
19852,5;30,39
19856,3;30,40
19860,0;30,40
19863,8;30,40
19867,5;30,40
19871,3;30,39
19875,0;30,39
19878,8;30,38
19882,5;30,37
19886,3;30,37
19890,0;30,36
19893,8;30,35
19897,5;30,35
19901,3;30,34
19905,0;30,34
19908,8;30,33
19912,5;30,32
19916,3;30,31
19920,0;30,31
19923,8;30,30
19927,5;30,30
19931,3;30,30
19935,0;30,30
19938,8;30,31
19942,5;30,31
19946,3;30,32
19950,0;30,33
19953,8;30,34
19957,5;30,35
19961,3;30,36
19965,0;30,37
19968,8;30,39
19972,5;30,40
19976,3;30,42
19980,0;30,43
19983,8;30,45
19987,5;30,47
19991,3;30,49
19995,0;30,50
19998,8;30,52
20002,5;30,54
20006,3;30,56
20010,0;30,58
20013,8;30,59
20017,5;30,60
20021,3;30,62
20025,0;30,63
20028,8;30,64
20032,5;30,65
20036,3;30,66
20040,0;30,67
20043,8;30,68
20047,5;30,69
20051,3;30,70
20055,0;30,70
20058,8;30,71
20062,5;30,72
20066,3;30,72
20070,0;30,72
20073,8;30,73
20077,5;30,73
20081,3;30,73
20085,0;30,73
20088,8;30,74
20092,5;30,74
20096,3;30,75
20100,0;30,75
20103,8;30,76
20107,5;30,76
20111,3;30,77
20115,0;30,77
20118,8;30,78
20122,5;30,78
20126,3;30,79
20130,0;30,79
20133,8;30,80
20137,5;30,80
20141,3;30,81
20145,0;30,81
20148,8;30,82
20152,5;30,82
20156,3;30,83
20160,0;30,83
20163,8;30,84
20167,5;30,84
20171,3;30,84
20175,0;30,84
20178,8;30,83
20182,5;30,83
20186,3;30,82
20190,0;30,81
20193,8;30,81
20197,5;30,80
20201,3;30,78
20205,0;30,77
20208,8;30,76
20212,5;30,75
20216,3;30,73
20220,0;30,71
20223,8;30,69
20227,5;30,67
20231,3;30,65
20235,0;30,63
20238,8;30,60
20242,5;30,58
20246,3;30,56
20250,0;30,53
20253,8;30,51
20257,5;30,50
20261,3;30,48
20265,0;30,46
20268,8;30,44
20272,5;30,42
20276,3;30,40
20280,0;30,39
20283,8;30,37
20287,5;30,36
20291,3;30,35
20295,0;30,34
20298,8;30,33
20302,5;30,33
20306,3;30,33
20310,0;30,33
20313,8;30,34
20317,5;30,34
20321,3;30,35
20325,0;30,36
20328,8;30,37
20332,5;30,38
20336,3;30,39
20340,0;30,40
20343,8;30,42
20347,5;30,44
20351,3;30,46
20355,0;30,48
20358,8;30,50
20362,5;30,52
20366,3;30,54
20370,0;30,56
20373,8;30,58
20377,5;30,60
20381,3;30,62
20385,0;30,63
20388,8;30,65
20392,5;30,67
20396,3;30,68
20400,0;30,70
20403,8;30,71
20407,5;30,72
20411,3;30,74
20415,0;30,75
20418,8;30,76
20422,5;30,76
20426,3;30,77
20430,0;30,77
20433,8;30,77
20437,5;30,77
20441,3;30,77
20445,0;30,77
20448,8;30,77
20452,5;30,77
20456,3;30,77
20460,0;30,76
20463,8;30,76
20467,5;30,76
20471,3;30,76
20475,0;30,76
20478,8;30,75
20482,5;30,75
20486,3;30,75
20490,0;30,74
20493,8;30,74
20497,5;30,74
20501,3;30,74
20505,0;30,75
20508,8;30,75
20512,5;30,76
20516,3;30,77
20520,0;30,77
20523,8;30,78
20527,5;30,79
20531,3;30,81
20535,0;30,82
20538,8;30,83
20542,5;30,84
20546,3;30,86
20550,0;30,87
20553,8;30,88
20557,5;30,90
20561,3;30,92
20565,0;30,94
20568,8;30,95
20572,5;30,97
20576,3;30,99
20580,0;31,01
20583,8;31,02
20587,5;31,03
20591,3;31,04
20595,0;31,05
20598,8;31,06
20602,5;31,06
20606,3;31,07
20610,0;31,07
20613,8;31,07
20617,5;31,07
20621,3;31,07
20625,0;31,07
20628,8;31,06
20632,5;31,06
20636,3;31,05
20640,0;31,04
20643,8;31,02
20647,5;31,01
20651,3;30,99
20655,0;30,97
20658,8;30,95
20662,5;30,93
20666,3;30,91
20670,0;30,89
20673,8;30,87
20677,5;30,86
20681,3;30,84
20685,0;30,82
20688,8;30,80
20692,5;30,78
20696,3;30,77
20700,0;30,75
20703,8;30,73
20707,5;30,72
20711,3;30,71
20715,0;30,70
20718,8;30,70
20722,5;30,70
20726,3;30,70
20730,0;30,71
20733,8;30,71
20737,5;30,72
20741,3;30,73
20745,0;30,75
20748,8;30,76
20752,5;30,78
20756,3;30,79
20760,0;30,81
20763,8;30,83
20767,5;30,86
20771,3;30,88
20775,0;30,91
20778,8;30,94
20782,5;30,97
20786,3;31,00
20790,0;31,03
20793,8;31,06
20797,5;31,09
20801,3;31,11
20805,0;31,13
20808,8;31,16
20812,5;31,18
20816,3;31,20
20820,0;31,22
20823,8;31,23
20827,5;31,25
20831,3;31,27
20835,0;31,28
20838,8;31,29
20842,5;31,30
20846,3;31,30
20850,0;31,30
20853,8;31,30
20857,5;31,30
20861,3;31,29
20865,0;31,28
20868,8;31,27
20872,5;31,26
20876,3;31,24
20880,0;31,23
20883,8;31,21
20887,5;31,20
20891,3;31,19
20895,0;31,17
20898,8;31,16
20902,5;31,14
20906,3;31,12
20910,0;31,11
20913,8;31,09
20917,5;31,07
20921,3;31,05
20925,0;31,04
20928,8;31,03
20932,5;31,02
20936,3;31,02
20940,0;31,01
20943,8;31,01
20947,5;31,01
20951,3;31,01
20955,0;31,02
20958,8;31,03
20962,5;31,03
20966,3;31,04
20970,0;31,05
20973,8;31,06
20977,5;31,08
20981,3;31,09
20985,0;31,11
20988,8;31,13
20992,5;31,15
20996,3;31,17
21000,0;31,20
21003,8;31,22
21007,5;31,25
21011,3;31,27
21015,0;31,29
21018,8;31,32
21022,5;31,34
21026,3;31,35
21030,0;31,37
21033,8;31,39
21037,5;31,41
21041,3;31,42
21045,0;31,44
21048,8;31,45
21052,5;31,47
21056,3;31,48
21060,0;31,49
21063,8;31,50
21067,5;31,50
21071,3;31,51
21075,0;31,51
21078,8;31,51
21082,5;31,50
21086,3;31,50
21090,0;31,50
21093,8;31,49
21097,5;31,48
21101,3;31,48
21105,0;31,47
21108,8;31,46
21112,5;31,46
21116,3;31,45
21120,0;31,44
21123,8;31,43
21127,5;31,43
21131,3;31,42
21135,0;31,41
21138,8;31,40
21142,5;31,39
21146,3;31,38
21150,0;31,38
21153,8;31,37
21157,5;31,37
21161,3;31,36
21165,0;31,36
21168,8;31,36
21172,5;31,36
21176,3;31,36
21180,0;31,37
21183,8;31,37
21187,5;31,37
21191,3;31,37
21195,0;31,37
21198,8;31,38
21202,5;31,38
21206,3;31,38
21210,0;31,38
21213,8;31,39
21217,5;31,39
21221,3;31,39
21225,0;31,39
21228,8;31,40
21232,5;31,40
21236,3;31,40
21240,0;31,40
21243,8;31,40
21247,5;31,40
21251,3;31,39
21255,0;31,39
21258,8;31,38
21262,5;31,37
21266,3;31,36
21270,0;31,35
21273,8;31,34
21277,5;31,33
21281,3;31,32
21285,0;31,31
21288,8;31,30
21292,5;31,30
21296,3;31,29
21300,0;31,27
21303,8;31,26
21307,5;31,25
21311,3;31,24
21315,0;31,22
21318,8;31,21
21322,5;31,20
21326,3;31,19
21330,0;31,18
21333,8;31,17
21337,5;31,17
21341,3;31,17
21345,0;31,17
21348,8;31,16
21352,5;31,17
21356,3;31,17
21360,0;31,17
21363,8;31,17
21367,5;31,18
21371,3;31,18
21375,0;31,19
21378,8;31,20
21382,5;31,21
21386,3;31,22
21390,0;31,23
21393,8;31,25
21397,5;31,26
21401,3;31,28
21405,0;31,30
21408,8;31,31
21412,5;31,33
21416,3;31,35
21420,0;31,37
21423,8;31,38
21427,5;31,40
21431,3;31,41
21435,0;31,42
21438,8;31,44
21442,5;31,45
21446,3;31,46
21450,0;31,47
21453,8;31,48
21457,5;31,49
21461,3;31,50
21465,0;31,51
21468,8;31,51
21472,5;31,52
21476,3;31,52
21480,0;31,52
21483,8;31,51
21487,5;31,51
21491,3;31,50
21495,0;31,49
21498,8;31,48
21502,5;31,47
21506,3;31,46
21510,0;31,45
21513,8;31,44
21517,5;31,43
21521,3;31,42
21525,0;31,40
21528,8;31,39
21532,5;31,38
21536,3;31,36
21540,0;31,35
21543,8;31,33
21547,5;31,32
21551,3;31,30
21555,0;31,29
21558,8;31,28
21562,5;31,27
21566,3;31,26
21570,0;31,25
21573,8;31,25
21577,5;31,25
21581,3;31,25
21585,0;31,25
21588,8;31,25
21592,5;31,25
21596,3;31,25
21600,0;31,26
21603,8;31,26
21607,5;31,27
21611,3;31,28
21615,0;31,28
21618,8;31,30
21622,5;31,31
21626,3;31,32
21630,0;31,34
21633,8;31,35
21637,5;31,37
21641,3;31,39
21645,0;31,41
21648,8;31,42
21652,5;31,44
21656,3;31,45
21660,0;31,46
21663,8;31,47
21667,5;31,48
21671,3;31,49
21675,0;31,50
21678,8;31,50
21682,5;31,51
21686,3;31,52
21690,0;31,52
21693,8;31,52
21697,5;31,53
21701,3;31,52
21705,0;31,52
21708,8;31,51
21712,5;31,51
21716,3;31,49
21720,0;31,48
21723,8;31,47
21727,5;31,45
21731,3;31,43
21735,0;31,41
21738,8;31,39
21742,5;31,37
21746,3;31,35
21750,0;31,33
21753,8;31,31
21757,5;31,29
21761,3;31,27
21765,0;31,25
21768,8;31,22
21772,5;31,20
21776,3;31,18
21780,0;31,15
21783,8;31,13
21787,5;31,11
21791,3;31,09
21795,0;31,07
21798,8;31,06
21802,5;31,05
21806,3;31,04
21810,0;31,04
21813,8;31,03
21817,5;31,03
21821,3;31,03
21825,0;31,03
21828,8;31,04
21832,5;31,04
21836,3;31,05
21840,0;31,06
21843,8;31,07
21847,5;31,08
21851,3;31,09
21855,0;31,11
21858,8;31,12
21862,5;31,15
21866,3;31,17
21870,0;31,19
21873,8;31,22
21877,5;31,25
21881,3;31,27
21885,0;31,30
21888,8;31,32
21892,5;31,35
21896,3;31,37
21900,0;31,39
21903,8;31,41
21907,5;31,43
21911,3;31,45
21915,0;31,48
21918,8;31,50
21922,5;31,51
21926,3;31,53
21930,0;31,55
21933,8;31,57
21937,5;31,58
21941,3;31,59
21945,0;31,61
21948,8;31,62
21952,5;31,62
21956,3;31,63
21960,0;31,63
21963,8;31,63
21967,5;31,63
21971,3;31,63
21975,0;31,63
21978,8;31,63
21982,5;31,63
21986,3;31,63
21990,0;31,63
21993,8;31,63
21997,5;31,63
22001,3;31,63
22005,0;31,63
22008,8;31,63
22012,5;31,63
22016,3;31,63
22020,0;31,63
22023,8;31,63
22027,5;31,63
22031,3;31,63
22035,0;31,63
22038,8;31,63
22042,5;31,64
22046,3;31,65
22050,0;31,66
22053,8;31,67
22057,5;31,68
22061,3;31,69
22065,0;31,70
22068,8;31,72
22072,5;31,73
22076,3;31,74
22080,0;31,76
22083,8;31,77
22087,5;31,79
22091,3;31,80
22095,0;31,81
22098,8;31,83
22102,5;31,84
22106,3;31,86
22110,0;31,87
22113,8;31,89
22117,5;31,90
22121,3;31,91
22125,0;31,93
22128,8;31,94
22132,5;31,95
22136,3;31,96
22140,0;31,96
22143,8;31,96
22147,5;31,96
22151,3;31,96
22155,0;31,96
22158,8;31,96
22162,5;31,95
22166,3;31,95
22170,0;31,94
22173,8;31,93
22177,5;31,92
22181,3;31,92
22185,0;31,91
22188,8;31,89
22192,5;31,88
22196,3;31,87
22200,0;31,85
22203,8;31,83
22207,5;31,82
22211,3;31,80
22215,0;31,78
22218,8;31,76
22222,5;31,74
22226,3;31,72
22230,0;31,70
22233,8;31,69
22237,5;31,67
22241,3;31,66
22245,0;31,65
22248,8;31,64
22252,5;31,64
22256,3;31,63
22260,0;31,62
22263,8;31,62
22267,5;31,61
22271,3;31,61
22275,0;31,61
22278,8;31,61
22282,5;31,61
22286,3;31,61
22290,0;31,62
22293,8;31,63
22297,5;31,64
22301,3;31,65
22305,0;31,67
22308,8;31,68
22312,5;31,70
22316,3;31,72
22320,0;31,74
22323,8;31,76
22327,5;31,78
22331,3;31,79
22335,0;31,81
22338,8;31,83
22342,5;31,84
22346,3;31,86
22350,0;31,88
22353,8;31,89
22357,5;31,91
22361,3;31,93
22365,0;31,94
22368,8;31,96
22372,5;31,97
22376,3;31,98
22380,0;31,99
22383,8;32,00
22387,5;32,00
22391,3;32,01
22395,0;32,00
22398,8;32,00
22402,5;31,99
22406,3;31,99
22410,0;31,98
22413,8;31,97
22417,5;31,95
22421,3;31,94
22425,0;31,92
22428,8;31,91
22432,5;31,89
22436,3;31,87
22440,0;31,85
22443,8;31,83
22447,5;31,81
22451,3;31,78
22455,0;31,75
22458,8;31,72
22462,5;31,69
22466,3;31,66
22470,0;31,63
22473,8;31,60
22477,5;31,58
22481,3;31,55
22485,0;31,53
22488,8;31,51
22492,5;31,49
22496,3;31,47
22500,0;31,45
22503,8;31,43
22507,5;31,41
22511,3;31,40
22515,0;31,38
22518,8;31,37
22522,5;31,36
22526,3;31,35
22530,0;31,34
22533,8;31,34
22537,5;31,34
22541,3;31,34
22545,0;31,35
22548,8;31,36
22552,5;31,37
22556,3;31,38
22560,0;31,39
22563,8;31,41
22567,5;31,43
22571,3;31,45
22575,0;31,47
22578,8;31,49
22582,5;31,52
22586,3;31,54
22590,0;31,56
22593,8;31,58
22597,5;31,61
22601,3;31,64
22605,0;31,67
22608,8;31,70
22612,5;31,73
22616,3;31,76
22620,0;31,79
22623,8;31,82
22627,5;31,85
22631,3;31,88
22635,0;31,90
22638,8;31,93
22642,5;31,95
22646,3;31,97
22650,0;31,99
22653,8;32,01
22657,5;32,03
22661,3;32,05
22665,0;32,07
22668,8;32,08
22672,5;32,10
22676,3;32,11
22680,0;32,12
22683,8;32,14
22687,5;32,15
22691,3;32,16
22695,0;32,17
22698,8;32,18
22702,5;32,18
22706,3;32,19
22710,0;32,19
22713,8;32,19
22717,5;32,19
22721,3;32,19
22725,0;32,20
22728,8;32,20
22732,5;32,20
22736,3;32,20
22740,0;32,20
22743,8;32,21
22747,5;32,21
22751,3;32,21
22755,0;32,22
22758,8;32,22
22762,5;32,23
22766,3;32,23
22770,0;32,24
22773,8;32,24
22777,5;32,25
22781,3;32,25
22785,0;32,26
22788,8;32,27
22792,5;32,28
22796,3;32,28
22800,0;32,29
22803,8;32,30
22807,5;32,31
22811,3;32,33
22815,0;32,34
22818,8;32,35
22822,5;32,37
22826,3;32,38
22830,0;32,39
22833,8;32,40
22837,5;32,42
22841,3;32,43
22845,0;32,43
22848,8;32,44
22852,5;32,45
22856,3;32,45
22860,0;32,46
22863,8;32,46
22867,5;32,47
22871,3;32,47
22875,0;32,48
22878,8;32,48
22882,5;32,48
22886,3;32,48
22890,0;32,48
22893,8;32,47
22897,5;32,47
22901,3;32,46
22905,0;32,45
22908,8;32,44
22912,5;32,42
22916,3;32,41
22920,0;32,39
22923,8;32,37
22927,5;32,35
22931,3;32,33
22935,0;32,31
22938,8;32,29
22942,5;32,27
22946,3;32,25
22950,0;32,23
22953,8;32,21
22957,5;32,19
22961,3;32,17
22965,0;32,15
22968,8;32,12
22972,5;32,10
22976,3;32,08
22980,0;32,05
22983,8;32,03
22987,5;32,01
22991,3;31,99
22995,0;31,97
22998,8;31,96
23002,5;31,95
23006,3;31,94
23010,0;31,93
23013,8;31,93
23017,5;31,93
23021,3;31,93
23025,0;31,93
23028,8;31,93
23032,5;31,93
23036,3;31,94
23040,0;31,95
23043,8;31,96
23047,5;31,97
23051,3;31,98
23055,0;31,99
23058,8;32,01
23062,5;32,03
23066,3;32,05
23070,0;32,07
23073,8;32,10
23077,5;32,12
23081,3;32,15
23085,0;32,18
23088,8;32,22
23092,5;32,25
23096,3;32,28
23100,0;32,31
23103,8;32,34
23107,5;32,37
23111,3;32,40
23115,0;32,43
23118,8;32,45
23122,5;32,48
23126,3;32,51
23130,0;32,54
23133,8;32,57
23137,5;32,60
23141,3;32,62
23145,0;32,65
23148,8;32,68
23152,5;32,70
23156,3;32,72
23160,0;32,74
23163,8;32,76
23167,5;32,78
23171,3;32,79
23175,0;32,81
23178,8;32,82
23182,5;32,83
23186,3;32,84
23190,0;32,85
23193,8;32,85
23197,5;32,86
23201,3;32,86
23205,0;32,87
23208,8;32,87
23212,5;32,88
23216,3;32,88
23220,0;32,88
23223,8;32,89
23227,5;32,89
23231,3;32,89
23235,0;32,89
23238,8;32,89
23242,5;32,89
23246,3;32,89
23250,0;32,89
23253,8;32,88
23257,5;32,88
23261,3;32,88
23265,0;32,88
23268,8;32,88
23272,5;32,88
23276,3;32,88
23280,0;32,88
23283,8;32,88
23287,5;32,88
23291,3;32,88
23295,0;32,89
23298,8;32,89
23302,5;32,89
23306,3;32,89
23310,0;32,89
23313,8;32,90
23317,5;32,89
23321,3;32,89
23325,0;32,89
23328,8;32,89
23332,5;32,88
23336,3;32,88
23340,0;32,87
23343,8;32,87
23347,5;32,86
23351,3;32,86
23355,0;32,85
23358,8;32,84
23362,5;32,83
23366,3;32,82
23370,0;32,81
23373,8;32,79
23377,5;32,78
23381,3;32,76
23385,0;32,74
23388,8;32,71
23392,5;32,69
23396,3;32,66
23400,0;32,63
23403,8;32,60
23407,5;32,56
23411,3;32,53
23415,0;32,49
23418,8;32,46
23422,5;32,42
23426,3;32,38
23430,0;32,35
23433,8;32,31
23437,5;32,27
23441,3;32,23
23445,0;32,19
23448,8;32,15
23452,5;32,10
23456,3;32,06
23460,0;32,01
23463,8;31,96
23467,5;31,92
23471,3;31,87
23475,0;31,83
23478,8;31,79
23482,5;31,75
23486,3;31,71
23490,0;31,67
23493,8;31,64
23497,5;31,61
23501,3;31,58
23505,0;31,56
23508,8;31,53
23512,5;31,51
23516,3;31,48
23520,0;31,46
23523,8;31,44
23527,5;31,42
23531,3;31,41
23535,0;31,40
23538,8;31,39
23542,5;31,38
23546,3;31,37
23550,0;31,37
23553,8;31,38
23557,5;31,38
23561,3;31,39
23565,0;31,40
23568,8;31,41
23572,5;31,43
23576,3;31,45
23580,0;31,47
23583,8;31,49
23587,5;31,51
23591,3;31,53
23595,0;31,55
23598,8;31,57
23602,5;31,59
23606,3;31,61
23610,0;31,63
23613,8;31,66
23617,5;31,68
23621,3;31,71
23625,0;31,74
23628,8;31,77
23632,5;31,80
23636,3;31,82
23640,0;31,85
23643,8;31,87
23647,5;31,90
23651,3;31,92
23655,0;31,94
23658,8;31,96
23662,5;31,97
23666,3;31,98
23670,0;31,99
23673,8;32,01
23677,5;32,01
23681,3;32,02
23685,0;32,03
23688,8;32,03
23692,5;32,04
23696,3;32,04
23700,0;32,04
23703,8;32,04
23707,5;32,04
23711,3;32,04
23715,0;32,03
23718,8;32,03
23722,5;32,02
23726,3;32,01
23730,0;32,00
23733,8;31,98
23737,5;31,97
23741,3;31,95
23745,0;31,93
23748,8;31,92
23752,5;31,90
23756,3;31,88
23760,0;31,86
23763,8;31,85
23767,5;31,83
23771,3;31,82
23775,0;31,80
23778,8;31,79
23782,5;31,78
23786,3;31,76
23790,0;31,75
23793,8;31,73
23797,5;31,72
23801,3;31,71
23805,0;31,69
23808,8;31,68
23812,5;31,67
23816,3;31,66
23820,0;31,66
23823,8;31,65
23827,5;31,65
23831,3;31,64
23835,0;31,64
23838,8;31,65
23842,5;31,65
23846,3;31,65
23850,0;31,66
23853,8;31,66
23857,5;31,67
23861,3;31,68
23865,0;31,69
23868,8;31,69
23872,5;31,70
23876,3;31,71
23880,0;31,72
23883,8;31,73
23887,5;31,74
23891,3;31,75
23895,0;31,76
23898,8;31,78
23902,5;31,79
23906,3;31,80
23910,0;31,82
23913,8;31,83
23917,5;31,84
23921,3;31,86
23925,0;31,87
23928,8;31,88
23932,5;31,90
23936,3;31,91
23940,0;31,92
23943,8;31,93
23947,5;31,94
23951,3;31,95
23955,0;31,95
23958,8;31,96
23962,5;31,97
23966,3;31,98
23970,0;31,98
23973,8;31,99
23977,5;31,99
23981,3;32,00
23985,0;32,01
23988,8;32,01
23992,5;32,02
23996,3;32,02
24000,0;32,03
24003,8;32,04
24007,5;32,04
24011,3;32,05
24015,0;32,06
24018,8;32,06
24022,5;32,07
24026,3;32,07
24030,0;32,08
24033,8;32,08
24037,5;32,09
24041,3;32,10
24045,0;32,11
24048,8;32,12
24052,5;32,13
24056,3;32,14
24060,0;32,15
24063,8;32,16
24067,5;32,18
24071,3;32,19
24075,0;32,21
24078,8;32,22
24082,5;32,24
24086,3;32,26
24090,0;32,28
24093,8;32,30
24097,5;32,32
24101,3;32,33
24105,0;32,35
24108,8;32,37
24112,5;32,39
24116,3;32,41
24120,0;32,43
24123,8;32,45
24127,5;32,47
24131,3;32,50
24135,0;32,52
24138,8;32,54
24142,5;32,57
24146,3;32,59
24150,0;32,61
24153,8;32,63
24157,5;32,65
24161,3;32,67
24165,0;32,69
24168,8;32,71
24172,5;32,72
24176,3;32,73
24180,0;32,74
24183,8;32,75
24187,5;32,76
24191,3;32,77
24195,0;32,78
24198,8;32,79
24202,5;32,79
24206,3;32,80
24210,0;32,80
24213,8;32,80
24217,5;32,80
24221,3;32,80
24225,0;32,79
24228,8;32,79
24232,5;32,78
24236,3;32,77
24240,0;32,76
24243,8;32,74
24247,5;32,73
24251,3;32,71
24255,0;32,69
24258,8;32,66
24262,5;32,64
24266,3;32,62
24270,0;32,59
24273,8;32,57
24277,5;32,55
24281,3;32,52
24285,0;32,50
24288,8;32,47
24292,5;32,45
24296,3;32,43
24300,0;32,40
24303,8;32,38
24307,5;32,35
24311,3;32,32
24315,0;32,30
24318,8;32,27
24322,5;32,24
24326,3;32,22
24330,0;32,19
24333,8;32,17
24337,5;32,14
24341,3;32,12
24345,0;32,11
24348,8;32,09
24352,5;32,08
24356,3;32,07
24360,0;32,06
24363,8;32,06
24367,5;32,05
24371,3;32,05
24375,0;32,04
24378,8;32,04
24382,5;32,04
24386,3;32,05
24390,0;32,05
24393,8;32,05
24397,5;32,06
24401,3;32,06
24405,0;32,07
24408,8;32,08
24412,5;32,09
24416,3;32,10
24420,0;32,11
24423,8;32,13
24427,5;32,15
24431,3;32,17
24435,0;32,19
24438,8;32,21
24442,5;32,23
24446,3;32,25
24450,0;32,27
24453,8;32,29
24457,5;32,30
24461,3;32,32
24465,0;32,33
24468,8;32,34
24472,5;32,35
24476,3;32,36
24480,0;32,37
24483,8;32,38
24487,5;32,38
24491,3;32,39
24495,0;32,39
24498,8;32,40
24502,5;32,40
24506,3;32,40
24510,0;32,40
24513,8;32,39
24517,5;32,39
24521,3;32,38
24525,0;32,37
24528,8;32,36
24532,5;32,34
24536,3;32,32
24540,0;32,30
24543,8;32,27
24547,5;32,24
24551,3;32,21
24555,0;32,18
24558,8;32,15
24562,5;32,11
24566,3;32,08
24570,0;32,04
24573,8;32,00
24577,5;31,97
24581,3;31,93
24585,0;31,90
24588,8;31,86
24592,5;31,83
24596,3;31,80
24600,0;31,76
24603,8;31,72
24607,5;31,69
24611,3;31,65
24615,0;31,61
24618,8;31,57
24622,5;31,53
24626,3;31,50
24630,0;31,46
24633,8;31,43
24637,5;31,40
24641,3;31,37
24645,0;31,35
24648,8;31,33
24652,5;31,31
24656,3;31,30
24660,0;31,28
24663,8;31,27
24667,5;31,27
24671,3;31,26
24675,0;31,26
24678,8;31,26
24682,5;31,26
24686,3;31,26
24690,0;31,26
24693,8;31,27
24697,5;31,27
24701,3;31,28
24705,0;31,29
24708,8;31,30
24712,5;31,32
24716,3;31,33
24720,0;31,35
24723,8;31,37
24727,5;31,40
24731,3;31,42
24735,0;31,45
24738,8;31,48
24742,5;31,51
24746,3;31,54
24750,0;31,57
24753,8;31,60
24757,5;31,63
24761,3;31,66
24765,0;31,68
24768,8;31,71
24772,5;31,73
24776,3;31,75
24780,0;31,76
24783,8;31,78
24787,5;31,80
24791,3;31,82
24795,0;31,84
24798,8;31,85
24802,5;31,87
24806,3;31,88
24810,0;31,89
24813,8;31,90
24817,5;31,91
24821,3;31,92
24825,0;31,92
24828,8;31,93
24832,5;31,93
24836,3;31,93
24840,0;31,92
24843,8;31,91
24847,5;31,90
24851,3;31,89
24855,0;31,88
24858,8;31,86
24862,5;31,84
24866,3;31,82
24870,0;31,80
24873,8;31,78
24877,5;31,76
24881,3;31,74
24885,0;31,72
24888,8;31,70
24892,5;31,68
24896,3;31,67
24900,0;31,65
24903,8;31,63
24907,5;31,61
24911,3;31,60
24915,0;31,58
24918,8;31,56
24922,5;31,54
24926,3;31,52
24930,0;31,51
24933,8;31,49
24937,5;31,47
24941,3;31,45
24945,0;31,43
24948,8;31,41
24952,5;31,39
24956,3;31,38
24960,0;31,36
