Created as New Dataset;Sample 007 By student Date s—ndag, februari 22 2026
nm;%T
1500,0;28,89
1503,8;29,41
1507,5;27,66
1511,3;28,46
1515,0;28,81
1518,8;29,28
1522,5;29,28
1526,3;28,46
1530,0;28,60
1533,8;30,29
1537,5;28,49
1541,3;27,61
1545,0;28,67
1548,8;27,22
1552,5;27,60
1556,3;27,68
1560,0;27,12
1563,8;27,67
1567,5;27,30
1571,3;26,46
1575,0;26,69
1578,8;26,44
1582,5;26,71
1586,3;26,50
1590,0;25,71
1593,8;26,29
1597,5;26,45
1601,3;26,61
1605,0;26,40
1608,8;27,01
1612,5;26,43
1616,3;26,69
1620,0;26,05
1623,8;27,11
1627,5;27,12
1631,3;28,47
1635,0;27,35
1638,8;26,97
1642,5;27,57
1646,3;28,46
1650,0;27,47
1653,8;28,58
1657,5;29,65
1661,3;29,42
1665,0;30,16
1668,8;29,69
1672,5;29,81
1676,3;30,98
1680,0;30,41
1683,8;30,89
1687,5;32,01
1691,3;31,32
1695,0;31,28
1698,8;32,03
1702,5;31,01
1706,3;31,78
1710,0;30,33
1713,8;30,94
1717,5;30,68
1721,3;29,44
1725,0;28,68
1728,8;28,84
1732,5;28,63
1736,3;28,20
1740,0;27,74
1743,8;27,24
1747,5;26,46
1751,3;25,88
1755,0;26,12
1758,8;25,00
1762,5;24,96
1766,3;24,49
1770,0;24,08
1773,8;24,53
1777,5;23,23
1781,3;23,05
1785,0;24,02
1788,8;23,65
1792,5;22,99
1796,3;23,83
1800,0;22,64
1803,8;23,34
1807,5;22,91
1811,3;23,92
1815,0;23,02
1818,8;23,64
1822,5;22,84
1826,3;23,08
1830,0;23,06
1833,8;23,52
1837,5;23,66
1841,3;22,59
1845,0;23,37
1848,8;21,70
1852,5;23,91
1856,3;24,33
1860,0;23,24
1863,8;24,97
1867,5;23,90
1871,3;23,41
1875,0;24,44
1878,8;24,77
1882,5;26,06
1886,3;25,07
1890,0;24,85
1893,8;25,80
1897,5;26,76
1901,3;25,44
1905,0;26,79
1908,8;26,24
1912,5;26,84
1916,3;26,95
1920,0;25,81
1923,8;27,29
1927,5;26,26
1931,3;26,83
1935,0;26,92
1938,8;26,87
1942,5;28,08
1946,3;27,91
1950,0;28,72
1953,8;27,43
1957,5;29,24
1961,3;28,54
1965,0;29,49
1968,8;29,76
1972,5;29,01
1976,3;28,54
1980,0;29,40
1983,8;29,40
1987,5;29,44
1991,3;29,09
1995,0;29,59
1998,8;29,35
2002,5;29,53
2006,3;30,48
2010,0;30,47
2013,8;29,46
2017,5;29,74
2021,3;30,75
2025,0;30,73
2028,8;29,48
2032,5;29,50
2036,3;29,18
2040,0;30,80
2043,8;29,96
2047,5;29,01
2051,3;30,94
2055,0;30,27
2058,8;31,31
2062,5;31,18
2066,3;28,72
2070,0;29,26
2073,8;30,82
2077,5;29,98
2081,3;31,63
2085,0;32,06
2088,8;29,56
2092,5;30,37
2096,3;32,15
2100,0;32,83
2103,8;29,63
2107,5;32,54
2111,3;33,28
2115,0;30,91
2118,8;32,73
2122,5;31,52
2126,3;31,58
2130,0;31,33
2133,8;30,44
2137,5;32,31
2141,3;31,18
2145,0;31,76
2148,8;31,84
2152,5;31,20
2156,3;31,19
2160,0;31,78
2163,8;34,03
2167,5;28,51
2171,3;30,17
2175,0;30,11
2178,8;33,30
2182,5;30,33
2186,3;30,27
2190,0;30,83
2193,8;32,96
2197,5;32,41
2201,3;32,39
2205,0;32,32
2208,8;31,41
2212,5;32,69
2216,3;30,10
2220,0;28,45
2223,8;35,31
2227,5;28,02
2231,3;36,64
2235,0;30,72
2238,8;28,53
2242,5;31,83
2246,3;29,38
2250,0;32,89
2253,8;32,52
2257,5;34,24
2261,3;36,39
2265,0;34,24
2268,8;25,66
2272,5;32,37
2276,3;42,48
2280,0;29,71
2283,8;32,33
2287,5;38,40
2291,3;26,05
2295,0;29,73
2298,8;29,54
2302,5;27,38
2306,3;28,86
2310,0;27,98
2313,8;27,58
2317,5;29,83
2321,3;22,27
2325,0;22,91
2328,8;30,61
2332,5;31,65
2336,3;30,88
2340,0;26,42
2343,8;27,24
2347,5;28,65
2351,3;26,62
2355,0;30,01
2358,8;32,89
2362,5;27,08
2366,3;33,48
2370,0;32,25
2373,8;29,39
2377,5;28,23
2381,3;29,67
2385,0;31,07
2388,8;29,09
2392,5;32,92
2396,3;30,33
2400,0;32,55
2403,8;32,14
2407,5;32,29
2411,3;32,29
2415,0;32,71
2418,8;30,47
2422,5;32,05
2426,3;32,55
2430,0;31,28
2433,8;30,05
2437,5;32,48
2441,3;31,92
2445,0;32,67
2448,8;30,97
2452,5;34,06
2456,3;33,06
2460,0;32,96
2463,8;31,43
2467,5;32,22
2471,3;32,46
2475,0;33,79
2478,8;32,77
2482,5;31,67
2486,3;32,48
2490,0;31,91
2493,8;30,16
2497,5;30,91
2501,3;32,48
2505,0;31,35
2508,8;31,25
2512,5;30,94
2516,3;31,60
2520,0;32,22
2523,8;31,77
2527,5;32,60
2531,3;32,32
2535,0;32,40
2538,8;31,96
2542,5;32,93
2546,3;31,89
2550,0;32,03
2553,8;32,20
2557,5;31,71
2561,3;32,45
2565,0;32,79
2568,8;32,15
2572,5;34,03
2576,3;33,40
2580,0;32,97
2583,8;33,68
2587,5;33,15
2591,3;32,52
2595,0;33,04
2598,8;32,85
2602,5;33,37
2606,3;33,64
2610,0;32,48
2613,8;32,14
2617,5;33,05
2621,3;32,49
2625,0;32,76
2628,8;33,19
2632,5;32,90
2636,3;32,49
2640,0;32,73
2643,8;32,11
2647,5;32,67
2651,3;32,58
2655,0;33,11
2658,8;32,65
2662,5;33,43
2666,3;33,51
2670,0;33,93
2673,8;33,81
2677,5;33,02
2681,3;32,85
2685,0;32,58
2688,8;32,58
2692,5;33,06
2696,3;32,76
2700,0;32,52
2703,8;32,21
2707,5;31,97
2711,3;32,77
2715,0;32,81
2718,8;32,83
2722,5;33,14
2726,3;33,17
2730,0;31,98
2733,8;32,79
2737,5;32,29
2741,3;32,94
2745,0;32,92
2748,8;32,63
2752,5;32,63
2756,3;32,34
2760,0;32,22
2763,8;32,41
2767,5;32,35
2771,3;32,22
2775,0;31,85
2778,8;31,99
2782,5;32,49
2786,3;31,93
2790,0;32,03
2793,8;31,77
2797,5;31,59
2801,3;32,25
2805,0;32,12
2808,8;31,75
2812,5;31,52
2816,3;31,85
2820,0;32,08
2823,8;32,05
2827,5;31,59
2831,3;31,63
2835,0;31,69
2838,8;31,77
2842,5;31,50
2846,3;31,58
2850,0;31,39
2853,8;31,87
2857,5;31,91
2861,3;31,91
2865,0;31,80
2868,8;31,79
2872,5;31,83
2876,3;31,88
2880,0;31,08
2883,8;31,44
2887,5;31,59
2891,3;31,33
2895,0;31,40
2898,8;31,63
2902,5;31,38
2906,3;31,15
2910,0;31,52
2913,8;31,30
2917,5;31,66
2921,3;31,39
2925,0;31,38
2928,8;31,59
2932,5;31,63
2936,3;31,28
2940,0;31,39
2943,8;31,33
2947,5;31,41
2951,3;31,54
2955,0;31,56
2958,8;31,45
2962,5;31,51
2966,3;31,35
2970,0;31,39
2973,8;31,61
2977,5;31,32
2981,3;31,20
2985,0;31,04
2988,8;31,27
2992,5;31,11
2996,3;31,42
3000,0;31,46
3003,8;31,48
3007,5;31,44
3011,3;31,21
3015,0;31,57
3018,8;31,63
3022,5;31,09
3026,3;31,06
3030,0;31,43
3033,8;30,80
3037,5;31,25
3041,3;31,17
3045,0;31,16
3048,8;31,25
3052,5;31,06
3056,3;31,55
3060,0;31,44
3063,8;31,17
3067,5;31,46
3071,3;31,14
3075,0;31,18
3078,8;31,34
3082,5;31,15
3086,3;31,12
3090,0;30,89
3093,8;31,28
3097,5;31,02
3101,3;31,17
3105,0;31,46
3108,8;31,14
3112,5;31,36
3116,3;31,58
3120,0;31,09
3123,8;31,16
3127,5;31,11
3131,3;31,31
3135,0;31,25
3138,8;31,30
3142,5;31,17
3146,3;31,28
3150,0;31,67
3153,8;31,35
3157,5;31,39
3161,3;31,41
3165,0;31,15
3168,8;30,95
3172,5;31,11
3176,3;31,21
3180,0;31,41
3183,8;31,03
3187,5;31,28
3191,3;31,31
3195,0;30,90
3198,8;31,10
3202,5;31,39
3206,3;31,27
3210,0;31,21
3213,8;31,25
3217,5;31,43
3221,3;31,25
3225,0;31,40
3228,8;31,38
3232,5;31,41
3236,3;31,62
3240,0;31,36
3243,8;31,34
3247,5;31,35
3251,3;31,17
3255,0;31,29
3258,8;31,41
3262,5;31,58
3266,3;31,31
3270,0;31,35
3273,8;31,36
3277,5;31,41
3281,3;31,41
3285,0;31,07
3288,8;31,44
3292,5;31,28
3296,3;31,06
3300,0;31,32
3303,8;31,20
3307,5;31,10
3311,3;31,05
3315,0;31,24
3318,8;31,44
3322,5;31,14
3326,3;31,28
3330,0;31,17
3333,8;31,17
3337,5;31,27
3341,3;31,37
3345,0;31,19
3348,8;31,16
3352,5;31,36
3356,3;31,20
3360,0;31,03
3363,8;31,06
3367,5;31,16
3371,3;31,02
3375,0;30,86
3378,8;30,91
3382,5;30,99
3386,3;30,93
3390,0;30,80
3393,8;30,91
3397,5;30,81
3401,3;30,66
3405,0;30,73
3408,8;30,66
3412,5;30,73
3416,3;30,81
3420,0;30,76
3423,8;30,77
3427,5;30,53
3431,3;30,60
3435,0;30,60
3438,8;30,77
3442,5;30,83
3446,3;30,85
3450,0;30,86
3453,8;30,90
3457,5;30,99
3461,3;30,80
3465,0;31,01
3468,8;31,34
3472,5;31,18
3476,3;31,15
3480,0;31,06
3483,8;31,02
3487,5;31,12
3491,3;30,98
3495,0;31,14
3498,8;31,06
3502,5;30,81
3506,3;30,78
3510,0;30,83
3513,8;30,71
3517,5;31,00
3521,3;31,16
3525,0;31,07
3528,8;30,98
3532,5;30,97
3536,3;30,97
3540,0;31,04
3543,8;31,06
3547,5;31,16
3551,3;31,18
3555,0;31,27
3558,8;31,18
3562,5;31,02
3566,3;30,99
3570,0;31,21
3573,8;31,19
3577,5;31,30
3581,3;31,18
3585,0;31,12
3588,8;31,19
3592,5;31,34
3596,3;31,28
3600,0;31,35
3603,8;31,25
3607,5;31,16
3611,3;31,21
3615,0;31,28
3618,8;31,31
3622,5;31,30
3626,3;31,17
3630,0;31,13
3633,8;31,22
3637,5;31,09
3641,3;31,00
3645,0;31,22
3648,8;31,19
3652,5;31,08
3656,3;31,14
3660,0;31,17
3663,8;31,36
3667,5;31,22
3671,3;31,13
3675,0;31,13
3678,8;31,18
3682,5;31,30
3686,3;31,24
3690,0;31,12
3693,8;31,13
3697,5;31,23
3701,3;31,22
3705,0;31,22
3708,8;31,18
3712,5;31,11
3716,3;31,07
3720,0;31,26
3723,8;31,36
3727,5;31,28
3731,3;31,19
3735,0;31,21
3738,8;31,29
3742,5;31,28
3746,3;31,22
3750,0;31,22
3753,8;31,25
3757,5;31,21
3761,3;31,16
3765,0;31,16
3768,8;31,08
3772,5;31,14
3776,3;31,17
3780,0;31,24
3783,8;31,18
3787,5;31,20
3791,3;31,18
3795,0;31,14
3798,8;31,21
3802,5;31,14
3806,3;31,12
3810,0;31,24
3813,8;31,18
3817,5;31,18
3821,3;31,21
3825,0;31,26
3828,8;31,30
3832,5;31,27
3836,3;31,18
3840,0;31,18
3843,8;31,24
3847,5;31,35
3851,3;31,30
3855,0;31,23
3858,8;31,08
3862,5;31,04
3866,3;31,07
3870,0;31,22
3873,8;31,23
3877,5;31,09
3881,3;31,12
3885,0;31,25
3888,8;31,30
3892,5;31,21
3896,3;31,09
3900,0;31,03
3903,8;31,08
3907,5;31,11
3911,3;31,14
3915,0;31,02
3918,8;30,95
3922,5;31,00
3926,3;31,11
3930,0;31,08
3933,8;31,03
3937,5;31,14
3941,3;31,20
3945,0;31,20
3948,8;31,18
3952,5;31,19
3956,3;31,19
3960,0;31,17
3963,8;31,11
3967,5;31,12
3971,3;31,10
3975,0;31,16
3978,8;31,18
3982,5;31,08
3986,3;31,07
3990,0;31,04
3993,8;30,96
3997,5;31,01
4001,3;31,13
4005,0;31,05
4008,8;30,98
4012,5;31,09
4016,3;31,08
4020,0;31,05
4023,8;31,09
4027,5;31,16
4031,3;31,21
4035,0;31,10
4038,8;30,96
4042,5;30,99
4046,3;31,02
4050,0;30,95
4053,8;31,01
4057,5;31,02
4061,3;30,94
4065,0;30,94
4068,8;31,01
4072,5;31,02
4076,3;31,05
4080,0;30,98
4083,8;30,89
4087,5;30,92
4091,3;31,07
4095,0;31,14
4098,8;31,10
4102,5;31,07
4106,3;31,03
4110,0;31,05
4113,8;31,08
4117,5;31,08
4121,3;31,06
4125,0;30,95
4128,8;30,88
4132,5;30,96
4136,3;31,02
4140,0;31,05
4143,8;31,05
4147,5;31,03
4151,3;31,03
4155,0;30,95
4158,8;30,90
4162,5;30,92
4166,3;30,91
4170,0;30,91
4173,8;30,97
4177,5;31,00
4181,3;30,99
4185,0;30,99
4188,8;30,92
4192,5;30,91
4196,3;30,98
4200,0;31,17
4203,8;31,38
4207,5;31,43
4211,3;31,49
4215,0;31,57
4218,8;31,49
4222,5;31,45
4226,3;31,36
4230,0;31,31
4233,8;31,62
4237,5;31,44
4241,3;31,31
4245,0;31,48
4248,8;31,46
4252,5;31,39
4256,3;31,46
4260,0;31,44
4263,8;31,50
4267,5;31,65
4271,3;31,47
4275,0;31,37
4278,8;31,47
4282,5;31,49
4286,3;31,56
4290,0;31,51
4293,8;31,26
4297,5;31,07
4301,3;31,10
4305,0;31,05
4308,8;30,89
4312,5;30,78
4316,3;30,74
4320,0;30,78
4323,8;30,93
4327,5;31,07
4331,3;31,05
4335,0;30,87
4338,8;30,83
4342,5;30,89
4346,3;30,88
4350,0;30,87
4353,8;30,91
4357,5;30,91
4361,3;30,87
4365,0;30,81
4368,8;30,76
4372,5;30,78
4376,3;30,84
4380,0;30,85
4383,8;30,83
4387,5;30,80
4391,3;30,84
4395,0;30,87
4398,8;30,83
4402,5;30,81
4406,3;30,81
4410,0;30,82
4413,8;30,78
4417,5;30,72
4421,3;30,75
4425,0;30,82
4428,8;30,83
4432,5;30,80
4436,3;30,83
4440,0;30,85
4443,8;30,79
4447,5;30,75
4451,3;30,77
4455,0;30,81
4458,8;30,77
4462,5;30,69
4466,3;30,71
4470,0;30,82
4473,8;30,83
4477,5;30,78
4481,3;30,76
4485,0;30,73
4488,8;30,67
4492,5;30,62
4496,3;30,61
4500,0;30,66
4503,8;30,70
4507,5;30,69
4511,3;30,71
4515,0;30,75
4518,8;30,73
4522,5;30,64
4526,3;30,63
4530,0;30,68
4533,8;30,70
4537,5;30,71
4541,3;30,72
4545,0;30,73
4548,8;30,70
4552,5;30,69
4556,3;30,73
4560,0;30,67
4563,8;30,57
4567,5;30,60
4571,3;30,69
4575,0;30,72
4578,8;30,73
4582,5;30,70
4586,3;30,65
4590,0;30,66
4593,8;30,70
4597,5;30,67
4601,3;30,60
4605,0;30,59
4608,8;30,59
4612,5;30,54
4616,3;30,55
4620,0;30,61
4623,8;30,66
4627,5;30,68
4631,3;30,69
4635,0;30,66
4638,8;30,56
4642,5;30,51
4646,3;30,53
4650,0;30,54
4653,8;30,51
4657,5;30,51
4661,3;30,60
4665,0;30,67
4668,8;30,64
4672,5;30,61
4676,3;30,61
4680,0;30,57
4683,8;30,48
4687,5;30,47
4691,3;30,55
4695,0;30,60
4698,8;30,55
4702,5;30,49
4706,3;30,52
4710,0;30,60
4713,8;30,60
4717,5;30,57
4721,3;30,57
4725,0;30,57
4728,8;30,53
4732,5;30,52
4736,3;30,54
4740,0;30,55
4743,8;30,56
4747,5;30,52
4751,3;30,48
4755,0;30,50
4758,8;30,49
4762,5;30,44
4766,3;30,45
4770,0;30,50
4773,8;30,54
4777,5;30,55
4781,3;30,53
4785,0;30,50
4788,8;30,51
4792,5;30,50
4796,3;30,45
4800,0;30,46
4803,8;30,54
4807,5;30,56
4811,3;30,45
4815,0;30,34
4818,8;30,35
4822,5;30,41
4826,3;30,46
4830,0;30,50
4833,8;30,49
4837,5;30,45
4841,3;30,46
4845,0;30,50
4848,8;30,48
4852,5;30,43
4856,3;30,42
4860,0;30,45
4863,8;30,45
4867,5;30,41
4871,3;30,39
4875,0;30,40
4878,8;30,41
4882,5;30,42
4886,3;30,40
4890,0;30,35
4893,8;30,35
4897,5;30,38
4901,3;30,38
4905,0;30,33
4908,8;30,30
4912,5;30,34
4916,3;30,38
4920,0;30,38
4923,8;30,37
4927,5;30,35
4931,3;30,34
4935,0;30,31
4938,8;30,28
4942,5;30,28
4946,3;30,32
4950,0;30,37
4953,8;30,39
4957,5;30,38
4961,3;30,33
4965,0;30,26
4968,8;30,24
4972,5;30,25
4976,3;30,25
4980,0;30,29
4983,8;30,36
4987,5;30,37
4991,3;30,35
4995,0;30,35
4998,8;30,36
5002,5;30,40
5006,3;30,40
5010,0;30,36
5013,8;30,33
5017,5;30,33
5021,3;30,31
5025,0;30,29
5028,8;30,30
5032,5;30,32
5036,3;30,33
5040,0;30,31
5043,8;30,28
5047,5;30,29
5051,3;30,33
5055,0;30,33
5058,8;30,29
5062,5;30,25
5066,3;30,23
5070,0;30,23
5073,8;30,22
5077,5;30,19
5081,3;30,19
5085,0;30,24
5088,8;30,28
5092,5;30,27
5096,3;30,24
5100,0;30,22
5103,8;30,19
5107,5;30,17
5111,3;30,18
5115,0;30,20
5118,8;30,18
5122,5;30,17
5126,3;30,21
5130,0;30,23
5133,8;30,22
5137,5;30,20
5141,3;30,17
5145,0;30,14
5148,8;30,14
5152,5;30,19
5156,3;30,20
5160,0;30,17
5163,8;30,13
5167,5;30,12
5171,3;30,14
5175,0;30,18
5178,8;30,18
5182,5;30,15
5186,3;30,13
5190,0;30,13
5193,8;30,13
5197,5;30,12
5201,3;30,15
5205,0;30,17
5208,8;30,17
5212,5;30,14
5216,3;30,11
5220,0;30,10
5223,8;30,10
5227,5;30,10
5231,3;30,09
5235,0;30,08
5238,8;30,08
5242,5;30,10
5246,3;30,11
5250,0;30,12
5253,8;30,14
5257,5;30,15
5261,3;30,13
5265,0;30,10
5268,8;30,08
5272,5;30,06
5276,3;30,08
5280,0;30,11
5283,8;30,13
5287,5;30,12
5291,3;30,09
5295,0;30,08
5298,8;30,11
5302,5;30,13
5306,3;30,13
5310,0;30,13
5313,8;30,10
5317,5;30,06
5321,3;30,04
5325,0;30,08
5328,8;30,13
5332,5;30,17
5336,3;30,19
5340,0;30,18
5343,8;30,16
5347,5;30,15
5351,3;30,14
5355,0;30,14
5358,8;30,14
5362,5;30,13
5366,3;30,11
5370,0;30,09
5373,8;30,09
5377,5;30,10
5381,3;30,09
5385,0;30,06
5388,8;30,04
5392,5;30,05
5396,3;30,07
5400,0;30,06
5403,8;30,01
5407,5;29,96
5411,3;29,98
5415,0;30,04
5418,8;30,10
5422,5;30,13
5426,3;30,13
5430,0;30,11
5433,8;30,08
5437,5;30,07
5441,3;30,04
5445,0;29,99
5448,8;29,94
5452,5;29,93
5456,3;29,95
5460,0;29,96
5463,8;29,97
5467,5;29,99
5471,3;29,97
5475,0;29,92
5478,8;29,89
5482,5;29,87
5486,3;29,86
5490,0;29,85
5493,8;29,86
5497,5;29,89
5501,3;29,95
5505,0;29,98
5508,8;29,99
5512,5;29,97
5516,3;29,94
5520,0;29,89
5523,8;29,85
5527,5;29,83
5531,3;29,83
5535,0;29,83
5538,8;29,81
5542,5;29,79
5546,3;29,77
5550,0;29,75
5553,8;29,74
5557,5;29,75
5561,3;29,74
5565,0;29,75
5568,8;29,78
5572,5;29,80
5576,3;29,78
5580,0;29,72
5583,8;29,69
5587,5;29,67
5591,3;29,65
5595,0;29,65
5598,8;29,67
5602,5;29,67
5606,3;29,64
5610,0;29,60
5613,8;29,58
5617,5;29,58
5621,3;29,58
5625,0;29,59
5628,8;29,60
5632,5;29,61
5636,3;29,60
5640,0;29,59
5643,8;29,60
5647,5;29,60
5651,3;29,58
5655,0;29,58
5658,8;29,58
5662,5;29,56
5666,3;29,51
5670,0;29,45
5673,8;29,42
5677,5;29,41
5681,3;29,38
5685,0;29,35
5688,8;29,34
5692,5;29,36
5696,3;29,36
5700,0;29,34
5703,8;29,30
5707,5;29,26
5711,3;29,22
5715,0;29,20
5718,8;29,19
5722,5;29,18
5726,3;29,17
5730,0;29,15
5733,8;29,14
5737,5;29,14
5741,3;29,12
5745,0;29,10
5748,8;29,09
5752,5;29,11
5756,3;29,12
5760,0;29,12
5763,8;29,09
5767,5;29,05
5771,3;29,04
5775,0;29,04
5778,8;29,03
5782,5;29,03
5786,3;29,03
5790,0;29,02
5793,8;29,00
5797,5;28,99
5801,3;28,98
5805,0;28,99
5808,8;29,01
5812,5;29,02
5816,3;29,03
5820,0;29,02
5823,8;29,01
5827,5;29,01
5831,3;29,04
5835,0;29,09
5838,8;29,12
5842,5;29,13
5846,3;29,11
5850,0;29,09
5853,8;29,07
5857,5;29,07
5861,3;29,09
5865,0;29,11
5868,8;29,12
5872,5;29,12
5876,3;29,10
5880,0;29,08
5883,8;29,08
5887,5;29,07
5891,3;29,04
5895,0;29,04
5898,8;29,09
5902,5;29,12
5906,3;29,11
5910,0;29,09
5913,8;29,09
5917,5;29,09
5921,3;29,09
5925,0;29,08
5928,8;29,06
5932,5;29,02
5936,3;28,99
5940,0;29,01
5943,8;29,03
5947,5;29,03
5951,3;29,03
5955,0;29,02
5958,8;28,98
5962,5;28,94
5966,3;28,92
5970,0;28,93
5973,8;28,95
5977,5;28,97
5981,3;28,99
5985,0;28,97
5988,8;28,93
5992,5;28,91
5996,3;28,91
6000,0;28,90
6003,8;28,87
6007,5;28,82
6011,3;28,77
6015,0;28,73
6018,8;28,72
6022,5;28,73
6026,3;28,73
6030,0;28,72
6033,8;28,72
6037,5;28,74
6041,3;28,74
6045,0;28,72
6048,8;28,72
6052,5;28,77
6056,3;28,80
6060,0;28,77
6063,8;28,78
6067,5;28,80
6071,3;28,81
6075,0;28,81
6078,8;28,79
6082,5;28,77
6086,3;28,77
6090,0;28,79
6093,8;28,81
6097,5;28,81
6101,3;28,79
6105,0;28,76
6108,8;28,75
6112,5;28,76
6116,3;28,82
6120,0;28,86
6123,8;28,87
6127,5;28,86
6131,3;28,84
6135,0;28,80
6138,8;28,78
6142,5;28,78
6146,3;28,80
6150,0;28,82
6153,8;28,81
6157,5;28,79
6161,3;28,77
6165,0;28,76
6168,8;28,76
6172,5;28,77
6176,3;28,78
6180,0;28,78
6183,8;28,76
6187,5;28,75
6191,3;28,74
6195,0;28,74
6198,8;28,75
6202,5;28,76
6206,3;28,77
6210,0;28,76
6213,8;28,75
6217,5;28,73
6221,3;28,71
6225,0;28,71
6228,8;28,73
6232,5;28,77
6236,3;28,79
6240,0;28,79
6243,8;28,77
6247,5;28,76
6251,3;28,75
6255,0;28,74
6258,8;28,72
6262,5;28,72
6266,3;28,73
6270,0;28,74
6273,8;28,74
6277,5;28,74
6281,3;28,74
6285,0;28,76
6288,8;28,78
6292,5;28,80
6296,3;28,80
6300,0;28,79
6303,8;28,78
6307,5;28,79
6311,3;28,81
6315,0;28,82
6318,8;28,81
6322,5;28,79
6326,3;28,78
6330,0;28,79
6333,8;28,80
6337,5;28,80
6341,3;28,78
6345,0;28,76
6348,8;28,74
6352,5;28,73
6356,3;28,74
6360,0;28,75
6363,8;28,77
6367,5;28,78
6371,3;28,78
6375,0;28,78
6378,8;28,76
6382,5;28,73
6386,3;28,72
6390,0;28,73
6393,8;28,76
6397,5;28,80
6401,3;28,84
6405,0;28,88
6408,8;28,87
6412,5;28,80
6416,3;28,73
6420,0;28,72
6423,8;28,72
6427,5;28,71
6431,3;28,71
6435,0;28,71
6438,8;28,71
6442,5;28,71
6446,3;28,70
6450,0;28,68
6453,8;28,67
6457,5;28,67
6461,3;28,67
6465,0;28,66
6468,8;28,65
6472,5;28,64
6476,3;28,63
6480,0;28,63
6483,8;28,63
6487,5;28,64
6491,3;28,63
6495,0;28,63
6498,8;28,62
6502,5;28,61
6506,3;28,61
6510,0;28,62
6513,8;28,64
6517,5;28,66
6521,3;28,65
6525,0;28,64
6528,8;28,61
6532,5;28,59
6536,3;28,58
6540,0;28,60
6543,8;28,64
6547,5;28,69
6551,3;28,72
6555,0;28,73
6558,8;28,73
6562,5;28,72
6566,3;28,71
6570,0;28,70
6573,8;28,69
6577,5;28,68
6581,3;28,67
6585,0;28,66
6588,8;28,64
6592,5;28,64
6596,3;28,66
6600,0;28,68
6603,8;28,70
6607,5;28,71
6611,3;28,71
6615,0;28,71
6618,8;28,71
6622,5;28,73
6626,3;28,77
6630,0;28,79
6633,8;28,79
6637,5;28,79
6641,3;28,78
6645,0;28,77
6648,8;28,75
6652,5;28,74
6656,3;28,74
6660,0;28,71
6663,8;28,67
6667,5;28,62
6671,3;28,61
6675,0;28,62
6678,8;28,64
6682,5;28,63
6686,3;28,58
6690,0;28,52
6693,8;28,46
6697,5;28,43
6701,3;28,43
6705,0;28,44
6708,8;28,46
6712,5;28,46
6716,3;28,47
6720,0;28,48
6723,8;28,49
6727,5;28,51
6731,3;28,52
6735,0;28,51
6738,8;28,49
6742,5;28,46
6746,3;28,42
6750,0;28,39
6753,8;28,36
6757,5;28,35
6761,3;28,34
6765,0;28,33
6768,8;28,31
6772,5;28,29
6776,3;28,29
6780,0;28,29
6783,8;28,27
6787,5;28,23
6791,3;28,17
6795,0;28,13
6798,8;28,12
6802,5;28,12
6806,3;28,14
6810,0;28,14
6813,8;28,14
6817,5;28,14
6821,3;28,13
6825,0;28,13
6828,8;28,13
6832,5;28,12
6836,3;28,12
6840,0;28,11
6843,8;28,11
6847,5;28,10
6851,3;28,10
6855,0;28,09
6858,8;28,08
6862,5;28,08
6866,3;28,09
6870,0;28,09
6873,8;28,07
6877,5;28,05
6881,3;28,02
6885,0;28,00
6888,8;27,99
6892,5;27,97
6896,3;27,95
6900,0;27,92
6903,8;27,90
6907,5;27,90
6911,3;27,90
6915,0;27,91
6918,8;27,92
6922,5;27,90
6926,3;27,88
6930,0;27,86
6933,8;27,86
6937,5;27,88
6941,3;27,91
6945,0;27,94
6948,8;27,97
6952,5;28,00
6956,3;28,02
6960,0;28,04
6963,8;28,06
6967,5;28,06
6971,3;28,07
6975,0;28,07
6978,8;28,07
6982,5;28,06
6986,3;28,05
6990,0;28,04
6993,8;28,03
6997,5;28,03
7001,3;28,03
7005,0;28,03
7008,8;28,03
7012,5;28,04
7016,3;28,05
7020,0;28,06
7023,8;28,06
7027,5;28,05
7031,3;28,03
7035,0;28,01
7038,8;28,00
7042,5;27,98
7046,3;27,99
7050,0;28,00
7053,8;28,02
7057,5;28,03
7061,3;28,01
7065,0;27,99
7068,8;27,97
7072,5;27,95
7076,3;27,94
7080,0;27,93
7083,8;27,91
7087,5;27,89
7091,3;27,88
7095,0;27,88
7098,8;27,89
7102,5;27,89
7106,3;27,90
7110,0;27,89
7113,8;27,89
7117,5;27,89
7121,3;27,90
7125,0;27,90
7128,8;27,92
7132,5;27,93
7136,3;27,93
7140,0;27,93
7143,8;27,92
7147,5;27,91
7151,3;27,90
7155,0;27,90
7158,8;27,89
7162,5;27,89
7166,3;27,89
7170,0;27,90
7173,8;27,92
7177,5;27,93
7181,3;27,94
7185,0;27,93
7188,8;27,92
7192,5;27,90
7196,3;27,90
7200,0;27,90
7203,8;27,91
7207,5;27,93
7211,3;27,94
7215,0;27,94
7218,8;27,94
7222,5;27,93
7226,3;27,93
7230,0;27,92
7233,8;27,91
7237,5;27,89
7241,3;27,87
7245,0;27,86
7248,8;27,85
7252,5;27,85
7256,3;27,85
7260,0;27,85
7263,8;27,84
7267,5;27,82
7271,3;27,79
7275,0;27,75
7278,8;27,74
7282,5;27,74
7286,3;27,75
7290,0;27,77
7293,8;27,78
7297,5;27,81
7301,3;27,83
7305,0;27,85
7308,8;27,87
7312,5;27,88
7316,3;27,89
7320,0;27,89
7323,8;27,90
7327,5;27,91
7331,3;27,93
7335,0;27,94
7338,8;27,94
7342,5;27,94
7346,3;27,92
7350,0;27,91
7353,8;27,90
7357,5;27,90
7361,3;27,91
7365,0;27,92
7368,8;27,93
7372,5;27,94
7376,3;27,94
7380,0;27,93
7383,8;27,91
7387,5;27,89
7391,3;27,88
7395,0;27,89
7398,8;27,90
7402,5;27,93
7406,3;27,94
7410,0;27,94
7413,8;27,92
7417,5;27,90
7421,3;27,88
7425,0;27,86
7428,8;27,85
7432,5;27,85
7436,3;27,85
7440,0;27,86
7443,8;27,87
7447,5;27,87
7451,3;27,89
7455,0;27,90
7458,8;27,91
7462,5;27,92
7466,3;27,94
7470,0;27,95
7473,8;27,95
7477,5;27,94
7481,3;27,92
7485,0;27,89
7488,8;27,86
7492,5;27,84
7496,3;27,82
7500,0;27,82
7503,8;27,83
7507,5;27,84
7511,3;27,85
7515,0;27,85
7518,8;27,84
7522,5;27,83
7526,3;27,82
7530,0;27,81
7533,8;27,81
7537,5;27,82
7541,3;27,84
7545,0;27,85
7548,8;27,86
7552,5;27,86
7556,3;27,86
7560,0;27,85
7563,8;27,84
7567,5;27,83
7571,3;27,82
7575,0;27,81
7578,8;27,79
7582,5;27,76
7586,3;27,74
7590,0;27,72
7593,8;27,71
7597,5;27,70
7601,3;27,70
7605,0;27,69
7608,8;27,69
7612,5;27,68
7616,3;27,67
7620,0;27,66
7623,8;27,64
7627,5;27,63
7631,3;27,62
7635,0;27,63
7638,8;27,65
7642,5;27,67
7646,3;27,69
7650,0;27,70
7653,8;27,71
7657,5;27,70
7661,3;27,70
7665,0;27,70
7668,8;27,70
7672,5;27,70
7676,3;27,70
7680,0;27,68
7683,8;27,67
7687,5;27,65
7691,3;27,64
7695,0;27,65
7698,8;27,67
7702,5;27,69
7706,3;27,71
7710,0;27,72
7713,8;27,71
7717,5;27,69
7721,3;27,67
7725,0;27,65
7728,8;27,64
7732,5;27,64
7736,3;27,64
7740,0;27,64
7743,8;27,64
7747,5;27,64
7751,3;27,64
7755,0;27,63
7758,8;27,62
7762,5;27,60
7766,3;27,58
7770,0;27,56
7773,8;27,54
7777,5;27,53
7781,3;27,52
7785,0;27,52
7788,8;27,52
7792,5;27,51
7796,3;27,49
7800,0;27,47
7803,8;27,45
7807,5;27,44
7811,3;27,44
7815,0;27,46
7818,8;27,48
7822,5;27,50
7826,3;27,51
7830,0;27,52
7833,8;27,53
7837,5;27,53
7841,3;27,54
7845,0;27,55
7848,8;27,55
7852,5;27,55
7856,3;27,53
7860,0;27,52
7863,8;27,50
7867,5;27,48
7871,3;27,47
7875,0;27,47
7878,8;27,47
7882,5;27,47
7886,3;27,47
7890,0;27,47
7893,8;27,47
7897,5;27,48
7901,3;27,49
7905,0;27,50
7908,8;27,50
7912,5;27,50
7916,3;27,49
7920,0;27,48
7923,8;27,47
7927,5;27,46
7931,3;27,46
7935,0;27,46
7938,8;27,46
7942,5;27,46
7946,3;27,46
7950,0;27,46
7953,8;27,47
7957,5;27,47
7961,3;27,47
7965,0;27,46
7968,8;27,45
7972,5;27,43
7976,3;27,41
7980,0;27,38
7983,8;27,37
7987,5;27,36
7991,3;27,37
7995,0;27,38
7998,8;27,39
8002,5;27,40
8006,3;27,41
8010,0;27,41
8013,8;27,40
8017,5;27,39
8021,3;27,38
8025,0;27,37
8028,8;27,36
8032,5;27,35
8036,3;27,35
8040,0;27,36
8043,8;27,37
8047,5;27,39
8051,3;27,41
8055,0;27,44
8058,8;27,47
8062,5;27,49
8066,3;27,51
8070,0;27,51
8073,8;27,51
8077,5;27,50
8081,3;27,49
8085,0;27,48
8088,8;27,48
8092,5;27,47
8096,3;27,47
8100,0;27,48
8103,8;27,47
8107,5;27,47
8111,3;27,47
8115,0;27,46
8118,8;27,46
8122,5;27,45
8126,3;27,45
8130,0;27,45
8133,8;27,45
8137,5;27,45
8141,3;27,46
8145,0;27,47
8148,8;27,48
8152,5;27,49
8156,3;27,50
8160,0;27,49
8163,8;27,48
8167,5;27,47
8171,3;27,45
8175,0;27,44
8178,8;27,45
8182,5;27,46
8186,3;27,48
8190,0;27,49
8193,8;27,50
8197,5;27,50
8201,3;27,49
8205,0;27,48
8208,8;27,46
8212,5;27,45
8216,3;27,44
8220,0;27,43
8223,8;27,42
8227,5;27,42
8231,3;27,41
8235,0;27,41
8238,8;27,41
8242,5;27,41
8246,3;27,41
8250,0;27,39
8253,8;27,38
8257,5;27,35
8261,3;27,33
8265,0;27,31
8268,8;27,30
8272,5;27,30
8276,3;27,31
8280,0;27,31
8283,8;27,32
8287,5;27,32
8291,3;27,32
8295,0;27,31
8298,8;27,30
8302,5;27,29
8306,3;27,28
8310,0;27,26
8313,8;27,25
8317,5;27,23
8321,3;27,22
8325,0;27,20
8328,8;27,20
8332,5;27,20
8336,3;27,21
8340,0;27,23
8343,8;27,25
8347,5;27,28
8351,3;27,30
8355,0;27,32
8358,8;27,33
8362,5;27,33
8366,3;27,32
8370,0;27,30
8373,8;27,29
8377,5;27,27
8381,3;27,25
8385,0;27,24
8388,8;27,23
8392,5;27,23
8396,3;27,23
8400,0;27,23
8403,8;27,23
8407,5;27,23
8411,3;27,22
8415,0;27,21
8418,8;27,21
8422,5;27,21
8426,3;27,21
8430,0;27,21
8433,8;27,21
8437,5;27,21
8441,3;27,21
8445,0;27,19
8448,8;27,18
8452,5;27,16
8456,3;27,15
8460,0;27,15
8463,8;27,16
8467,5;27,17
8471,3;27,19
8475,0;27,22
8478,8;27,24
8482,5;27,26
8486,3;27,27
8490,0;27,27
8493,8;27,27
8497,5;27,26
8501,3;27,25
8505,0;27,24
8508,8;27,24
8512,5;27,24
8516,3;27,25
8520,0;27,26
8523,8;27,27
8527,5;27,27
8531,3;27,27
8535,0;27,26
8538,8;27,25
8542,5;27,24
8546,3;27,22
8550,0;27,21
8553,8;27,19
8557,5;27,17
8561,3;27,15
8565,0;27,14
8568,8;27,12
8572,5;27,10
8576,3;27,09
8580,0;27,08
8583,8;27,07
8587,5;27,07
8591,3;27,07
8595,0;27,07
8598,8;27,07
8602,5;27,06
8606,3;27,06
8610,0;27,06
8613,8;27,05
8617,5;27,04
8621,3;27,03
8625,0;27,02
8628,8;27,01
8632,5;27,01
8636,3;27,01
8640,0;27,01
8643,8;27,02
8647,5;27,03
8651,3;27,04
8655,0;27,06
8658,8;27,08
8662,5;27,10
8666,3;27,11
8670,0;27,11
8673,8;27,11
8677,5;27,10
8681,3;27,09
8685,0;27,07
8688,8;27,05
8692,5;27,03
8696,3;27,02
8700,0;27,00
8703,8;26,98
8707,5;26,96
8711,3;26,93
8715,0;26,91
8718,8;26,89
8722,5;26,88
8726,3;26,88
8730,0;26,88
8733,8;26,88
8737,5;26,88
8741,3;26,88
8745,0;26,87
8748,8;26,85
8752,5;26,84
8756,3;26,83
8760,0;26,83
8763,8;26,85
8767,5;26,87
8771,3;26,91
8775,0;26,94
8778,8;26,98
8782,5;27,00
8786,3;27,02
8790,0;27,02
8793,8;27,02
8797,5;27,01
8801,3;26,99
8805,0;26,98
8808,8;26,96
8812,5;26,93
8816,3;26,91
8820,0;26,88
8823,8;26,85
8827,5;26,81
8831,3;26,78
8835,0;26,76
8838,8;26,75
8842,5;26,74
8846,3;26,75
8850,0;26,77
8853,8;26,78
8857,5;26,79
8861,3;26,80
8865,0;26,79
8868,8;26,79
8872,5;26,78
8876,3;26,77
8880,0;26,76
8883,8;26,76
8887,5;26,76
8891,3;26,76
8895,0;26,76
8898,8;26,76
8902,5;26,75
8906,3;26,75
8910,0;26,74
8913,8;26,74
8917,5;26,74
8921,3;26,73
8925,0;26,73
8928,8;26,72
8932,5;26,71
8936,3;26,69
8940,0;26,68
8943,8;26,66
8947,5;26,65
8951,3;26,64
8955,0;26,63
8958,8;26,63
8962,5;26,63
8966,3;26,64
8970,0;26,64
8973,8;26,65
8977,5;26,66
8981,3;26,67
8985,0;26,68
8988,8;26,69
8992,5;26,69
8996,3;26,69
9000,0;26,69
9003,8;26,69
9007,5;26,69
9011,3;26,68
9015,0;26,68
9018,8;26,68
9022,5;26,69
9026,3;26,69
9030,0;26,70
9033,8;26,70
9037,5;26,71
9041,3;26,73
9045,0;26,74
9048,8;26,76
9052,5;26,77
9056,3;26,79
9060,0;26,80
9063,8;26,81
9067,5;26,81
9071,3;26,81
9075,0;26,80
9078,8;26,79
9082,5;26,78
9086,3;26,76
9090,0;26,74
9093,8;26,73
9097,5;26,71
9101,3;26,69
9105,0;26,68
9108,8;26,66
9112,5;26,66
9116,3;26,65
9120,0;26,65
9123,8;26,65
9127,5;26,66
9131,3;26,66
9135,0;26,66
9138,8;26,67
9142,5;26,67
9146,3;26,68
9150,0;26,68
9153,8;26,68
9157,5;26,68
9161,3;26,67
9165,0;26,65
9168,8;26,63
9172,5;26,61
9176,3;26,59
9180,0;26,57
9183,8;26,57
9187,5;26,57
9191,3;26,58
9195,0;26,59
9198,8;26,61
9202,5;26,62
9206,3;26,62
9210,0;26,62
9213,8;26,61
9217,5;26,59
9221,3;26,58
9225,0;26,56
9228,8;26,55
9232,5;26,55
9236,3;26,55
9240,0;26,55
9243,8;26,55
9247,5;26,56
9251,3;26,56
9255,0;26,56
9258,8;26,57
9262,5;26,57
9266,3;26,58
9270,0;26,58
9273,8;26,59
9277,5;26,59
9281,3;26,60
9285,0;26,59
9288,8;26,58
9292,5;26,57
9296,3;26,56
9300,0;26,55
9303,8;26,55
9307,5;26,55
9311,3;26,56
9315,0;26,57
9318,8;26,58
9322,5;26,59
9326,3;26,60
9330,0;26,59
9333,8;26,59
9337,5;26,57
9341,3;26,56
9345,0;26,54
9348,8;26,53
9352,5;26,53
9356,3;26,54
9360,0;26,55
9363,8;26,57
9367,5;26,60
9371,3;26,63
9375,0;26,67
9378,8;26,70
9382,5;26,74
9386,3;26,76
9390,0;26,78
9393,8;26,79
9397,5;26,79
9401,3;26,78
9405,0;26,76
9408,8;26,73
9412,5;26,70
9416,3;26,66
9420,0;26,62
9423,8;26,58
9427,5;26,54
9431,3;26,51
9435,0;26,48
9438,8;26,47
9442,5;26,47
9446,3;26,48
9450,0;26,50
9453,8;26,52
9457,5;26,54
9461,3;26,56
9465,0;26,58
9468,8;26,59
9472,5;26,59
9476,3;26,59
9480,0;26,60
9483,8;26,60
9487,5;26,60
9491,3;26,61
9495,0;26,62
9498,8;26,62
9502,5;26,62
9506,3;26,62
9510,0;26,61
9513,8;26,59
9517,5;26,57
9521,3;26,55
9525,0;26,52
9528,8;26,50
9532,5;26,49
9536,3;26,47
9540,0;26,46
9543,8;26,46
9547,5;26,45
9551,3;26,45
9555,0;26,45
9558,8;26,45
9562,5;26,46
9566,3;26,46
9570,0;26,46
9573,8;26,47
9577,5;26,47
9581,3;26,48
9585,0;26,49
9588,8;26,50
9592,5;26,52
9596,3;26,53
9600,0;26,54
9603,8;26,56
9607,5;26,57
9611,3;26,57
9615,0;26,58
9618,8;26,58
9622,5;26,57
9626,3;26,57
9630,0;26,56
9633,8;26,55
9637,5;26,55
9641,3;26,54
9645,0;26,54
9648,8;26,54
9652,5;26,53
9656,3;26,53
9660,0;26,52
9663,8;26,52
9667,5;26,51
9671,3;26,51
9675,0;26,50
9678,8;26,50
9682,5;26,49
9686,3;26,48
9690,0;26,48
9693,8;26,47
9697,5;26,46
9701,3;26,45
9705,0;26,45
9708,8;26,45
9712,5;26,45
9716,3;26,44
9720,0;26,44
9723,8;26,44
9727,5;26,44
9731,3;26,44
9735,0;26,43
9738,8;26,44
9742,5;26,44
9746,3;26,45
9750,0;26,46
9753,8;26,47
9757,5;26,48
9761,3;26,48
9765,0;26,48
9768,8;26,48
9772,5;26,47
9776,3;26,46
9780,0;26,45
9783,8;26,45
9787,5;26,45
9791,3;26,47
9795,0;26,49
9798,8;26,51
9802,5;26,55
9806,3;26,57
9810,0;26,60
9813,8;26,62
9817,5;26,63
9821,3;26,63
9825,0;26,62
9828,8;26,61
9832,5;26,60
9836,3;26,58
9840,0;26,57
9843,8;26,56
9847,5;26,55
9851,3;26,55
9855,0;26,55
9858,8;26,56
9862,5;26,56
9866,3;26,57
9870,0;26,58
9873,8;26,59
9877,5;26,60
9881,3;26,60
9885,0;26,60
9888,8;26,60
9892,5;26,60
9896,3;26,60
9900,0;26,61
9903,8;26,61
9907,5;26,61
9911,3;26,61
9915,0;26,61
9918,8;26,61
9922,5;26,61
9926,3;26,60
9930,0;26,59
9933,8;26,59
9937,5;26,58
9941,3;26,57
9945,0;26,56
9948,8;26,56
9952,5;26,56
9956,3;26,56
9960,0;26,57
9963,8;26,57
9967,5;26,58
9971,3;26,58
9975,0;26,59
9978,8;26,59
9982,5;26,59
9986,3;26,60
9990,0;26,60
9993,8;26,61
9997,5;26,62
10001,3;26,62
10005,0;26,63
10008,8;26,64
10012,5;26,64
10016,3;26,65
10020,0;26,65
10023,8;26,66
10027,5;26,66
10031,3;26,66
10035,0;26,65
10038,8;26,65
10042,5;26,64
10046,3;26,63
10050,0;26,62
10053,8;26,60
10057,5;26,59
10061,3;26,58
10065,0;26,57
10068,8;26,57
10072,5;26,57
10076,3;26,57
10080,0;26,57
10083,8;26,57
10087,5;26,57
10091,3;26,57
10095,0;26,57
10098,8;26,57
10102,5;26,57
10106,3;26,56
10110,0;26,56
10113,8;26,56
10117,5;26,57
10121,3;26,57
10125,0;26,58
10128,8;26,58
10132,5;26,58
10136,3;26,57
10140,0;26,56
10143,8;26,55
10147,5;26,53
10151,3;26,51
10155,0;26,49
10158,8;26,48
10162,5;26,47
10166,3;26,45
10170,0;26,45
10173,8;26,45
10177,5;26,44
10181,3;26,45
10185,0;26,45
10188,8;26,45
10192,5;26,45
10196,3;26,45
10200,0;26,45
10203,8;26,45
10207,5;26,46
10211,3;26,46
10215,0;26,47
10218,8;26,48
10222,5;26,49
10226,3;26,51
10230,0;26,51
10233,8;26,52
10237,5;26,52
10241,3;26,52
10245,0;26,52
10248,8;26,51
10252,5;26,51
10256,3;26,50
10260,0;26,49
10263,8;26,49
10267,5;26,49
10271,3;26,49
10275,0;26,49
10278,8;26,50
10282,5;26,50
10286,3;26,50
10290,0;26,50
10293,8;26,50
10297,5;26,49
10301,3;26,49
10305,0;26,49
10308,8;26,48
10312,5;26,48
10316,3;26,48
10320,0;26,48
10323,8;26,47
10327,5;26,47
10331,3;26,47
10335,0;26,47
10338,8;26,47
10342,5;26,46
10346,3;26,46
10350,0;26,46
10353,8;26,45
10357,5;26,45
10361,3;26,45
10365,0;26,45
10368,8;26,45
10372,5;26,45
10376,3;26,45
10380,0;26,45
10383,8;26,44
10387,5;26,44
10391,3;26,44
10395,0;26,43
10398,8;26,43
10402,5;26,43
10406,3;26,44
10410,0;26,44
10413,8;26,45
10417,5;26,45
10421,3;26,46
10425,0;26,46
10428,8;26,46
10432,5;26,46
10436,3;26,46
10440,0;26,45
10443,8;26,44
10447,5;26,44
10451,3;26,43
10455,0;26,42
10458,8;26,41
10462,5;26,41
10466,3;26,40
10470,0;26,40
10473,8;26,40
10477,5;26,41
10481,3;26,41
10485,0;26,41
10488,8;26,41
10492,5;26,42
10496,3;26,42
10500,0;26,41
10503,8;26,41
10507,5;26,41
10511,3;26,41
10515,0;26,40
10518,8;26,40
10522,5;26,40
10526,3;26,41
10530,0;26,41
10533,8;26,42
10537,5;26,43
10541,3;26,44
10545,0;26,45
10548,8;26,45
10552,5;26,45
10556,3;26,45
10560,0;26,45
10563,8;26,45
10567,5;26,44
10571,3;26,43
10575,0;26,42
10578,8;26,41
10582,5;26,41
10586,3;26,40
10590,0;26,40
10593,8;26,40
10597,5;26,40
10601,3;26,41
10605,0;26,41
10608,8;26,42
10612,5;26,43
10616,3;26,44
10620,0;26,45
10623,8;26,46
10627,5;26,47
10631,3;26,47
10635,0;26,48
10638,8;26,48
10642,5;26,48
10646,3;26,48
10650,0;26,47
10653,8;26,47
10657,5;26,47
10661,3;26,46
10665,0;26,46
10668,8;26,46
10672,5;26,46
10676,3;26,47
10680,0;26,47
10683,8;26,48
10687,5;26,48
10691,3;26,49
10695,0;26,49
10698,8;26,49
10702,5;26,48
10706,3;26,48
10710,0;26,47
10713,8;26,47
10717,5;26,46
10721,3;26,45
10725,0;26,45
10728,8;26,44
10732,5;26,44
10736,3;26,43
10740,0;26,43
10743,8;26,42
10747,5;26,42
10751,3;26,41
10755,0;26,41
10758,8;26,40
10762,5;26,40
10766,3;26,40
10770,0;26,39
10773,8;26,39
10777,5;26,39
10781,3;26,39
10785,0;26,40
10788,8;26,40
10792,5;26,40
10796,3;26,40
10800,0;26,41
10803,8;26,41
10807,5;26,42
10811,3;26,43
10815,0;26,44
10818,8;26,45
10822,5;26,46
10826,3;26,48
10830,0;26,49
10833,8;26,50
10837,5;26,52
10841,3;26,53
10845,0;26,53
10848,8;26,54
10852,5;26,54
10856,3;26,54
10860,0;26,53
10863,8;26,53
10867,5;26,52
10871,3;26,51
10875,0;26,50
10878,8;26,48
10882,5;26,47
10886,3;26,46
10890,0;26,44
10893,8;26,43
10897,5;26,41
10901,3;26,40
10905,0;26,38
10908,8;26,37
10912,5;26,35
10916,3;26,34
10920,0;26,33
10923,8;26,32
10927,5;26,31
10931,3;26,31
10935,0;26,30
10938,8;26,29
10942,5;26,29
10946,3;26,29
10950,0;26,28
10953,8;26,28
10957,5;26,28
10961,3;26,27
10965,0;26,27
10968,8;26,26
10972,5;26,26
10976,3;26,25
10980,0;26,25
10983,8;26,25
10987,5;26,24
10991,3;26,24
10995,0;26,24
10998,8;26,24
11002,5;26,24
11006,3;26,24
11010,0;26,24
11013,8;26,24
11017,5;26,24
11021,3;26,23
11025,0;26,22
11028,8;26,21
11032,5;26,19
11036,3;26,17
11040,0;26,15
11043,8;26,13
11047,5;26,11
11051,3;26,10
11055,0;26,09
11058,8;26,08
11062,5;26,08
11066,3;26,09
11070,0;26,11
11073,8;26,13
11077,5;26,15
11081,3;26,17
11085,0;26,20
11088,8;26,23
11092,5;26,25
11096,3;26,27
11100,0;26,29
11103,8;26,30
11107,5;26,31
11111,3;26,31
11115,0;26,31
11118,8;26,30
11122,5;26,29
11126,3;26,28
11130,0;26,27
11133,8;26,26
11137,5;26,25
11141,3;26,24
11145,0;26,23
11148,8;26,22
11152,5;26,21
11156,3;26,21
11160,0;26,20
11163,8;26,20
11167,5;26,21
11171,3;26,21
11175,0;26,22
11178,8;26,23
11182,5;26,24
11186,3;26,25
11190,0;26,26
11193,8;26,27
11197,5;26,28
11201,3;26,28
11205,0;26,29
11208,8;26,29
11212,5;26,29
11216,3;26,29
11220,0;26,29
11223,8;26,29
11227,5;26,28
11231,3;26,28
11235,0;26,28
11238,8;26,28
11242,5;26,29
11246,3;26,29
11250,0;26,29
11253,8;26,30
11257,5;26,30
11261,3;26,30
11265,0;26,31
11268,8;26,31
11272,5;26,32
11276,3;26,32
11280,0;26,33
11283,8;26,33
11287,5;26,33
11291,3;26,33
11295,0;26,33
11298,8;26,33
11302,5;26,32
11306,3;26,32
11310,0;26,31
11313,8;26,31
11317,5;26,30
11321,3;26,29
11325,0;26,28
11328,8;26,27
11332,5;26,26
11336,3;26,25
11340,0;26,24
11343,8;26,24
11347,5;26,23
11351,3;26,23
11355,0;26,22
11358,8;26,23
11362,5;26,23
11366,3;26,23
11370,0;26,24
11373,8;26,25
11377,5;26,26
11381,3;26,26
11385,0;26,27
11388,8;26,28
11392,5;26,29
11396,3;26,29
11400,0;26,30
11403,8;26,30
11407,5;26,30
11411,3;26,30
11415,0;26,30
11418,8;26,30
11422,5;26,30
11426,3;26,30
11430,0;26,29
11433,8;26,29
11437,5;26,29
11441,3;26,29
11445,0;26,28
11448,8;26,28
11452,5;26,28
11456,3;26,27
11460,0;26,27
11463,8;26,27
11467,5;26,26
11471,3;26,26
11475,0;26,25
11478,8;26,24
11482,5;26,24
11486,3;26,23
11490,0;26,23
11493,8;26,22
11497,5;26,22
11501,3;26,21
11505,0;26,21
11508,8;26,20
11512,5;26,20
11516,3;26,19
11520,0;26,18
11523,8;26,18
11527,5;26,17
11531,3;26,17
11535,0;26,17
11538,8;26,17
11542,5;26,18
11546,3;26,19
11550,0;26,20
11553,8;26,22
11557,5;26,24
11561,3;26,26
11565,0;26,29
11568,8;26,31
11572,5;26,33
11576,3;26,36
11580,0;26,38
11583,8;26,40
11587,5;26,41
11591,3;26,43
11595,0;26,44
11598,8;26,45
11602,5;26,46
11606,3;26,47
11610,0;26,47
11613,8;26,48
11617,5;26,49
11621,3;26,49
11625,0;26,50
11628,8;26,51
11632,5;26,51
11636,3;26,52
11640,0;26,52
11643,8;26,53
11647,5;26,53
11651,3;26,53
11655,0;26,53
11658,8;26,53
11662,5;26,53
11666,3;26,52
11670,0;26,51
11673,8;26,51
11677,5;26,50
11681,3;26,49
11685,0;26,48
11688,8;26,47
11692,5;26,46
11696,3;26,45
11700,0;26,44
11703,8;26,43
11707,5;26,42
11711,3;26,42
11715,0;26,41
11718,8;26,41
11722,5;26,41
11726,3;26,41
11730,0;26,41
11733,8;26,42
11737,5;26,42
11741,3;26,43
11745,0;26,44
11748,8;26,44
11752,5;26,45
11756,3;26,46
11760,0;26,46
11763,8;26,47
11767,5;26,47
11771,3;26,48
11775,0;26,48
11778,8;26,48
11782,5;26,49
11786,3;26,49
11790,0;26,49
11793,8;26,50
11797,5;26,50
11801,3;26,51
11805,0;26,52
11808,8;26,52
11812,5;26,53
11816,3;26,54
11820,0;26,55
11823,8;26,56
11827,5;26,56
11831,3;26,57
11835,0;26,58
11838,8;26,59
11842,5;26,59
11846,3;26,60
11850,0;26,60
11853,8;26,61
11857,5;26,61
11861,3;26,62
11865,0;26,62
11868,8;26,63
11872,5;26,63
11876,3;26,63
11880,0;26,63
11883,8;26,63
11887,5;26,63
11891,3;26,62
11895,0;26,62
11898,8;26,62
11902,5;26,61
11906,3;26,60
11910,0;26,60
11913,8;26,59
11917,5;26,58
11921,3;26,58
11925,0;26,57
11928,8;26,57
11932,5;26,57
11936,3;26,57
11940,0;26,57
11943,8;26,58
11947,5;26,59
11951,3;26,60
11955,0;26,61
11958,8;26,62
11962,5;26,64
11966,3;26,66
11970,0;26,67
11973,8;26,69
11977,5;26,70
11981,3;26,72
11985,0;26,73
11988,8;26,74
11992,5;26,75
11996,3;26,76
12000,0;26,76
12003,8;26,76
12007,5;26,76
12011,3;26,76
12015,0;26,75
12018,8;26,75
12022,5;26,74
12026,3;26,74
12030,0;26,73
12033,8;26,73
12037,5;26,72
12041,3;26,71
12045,0;26,71
12048,8;26,70
12052,5;26,69
12056,3;26,68
12060,0;26,68
12063,8;26,67
12067,5;26,66
12071,3;26,65
12075,0;26,64
12078,8;26,63
12082,5;26,61
12086,3;26,60
12090,0;26,59
12093,8;26,57
12097,5;26,56
12101,3;26,54
12105,0;26,52
12108,8;26,50
12112,5;26,49
12116,3;26,47
12120,0;26,45
12123,8;26,44
12127,5;26,42
12131,3;26,41
12135,0;26,40
12138,8;26,40
12142,5;26,39
12146,3;26,39
12150,0;26,40
12153,8;26,40
12157,5;26,41
12161,3;26,42
12165,0;26,43
12168,8;26,44
12172,5;26,45
12176,3;26,45
12180,0;26,46
12183,8;26,46
12187,5;26,46
12191,3;26,46
12195,0;26,46
12198,8;26,45
12202,5;26,45
12206,3;26,44
12210,0;26,44
12213,8;26,43
12217,5;26,43
12221,3;26,43
12225,0;26,43
12228,8;26,44
12232,5;26,44
12236,3;26,45
12240,0;26,47
12243,8;26,48
12247,5;26,49
12251,3;26,50
12255,0;26,51
12258,8;26,52
12262,5;26,53
12266,3;26,54
12270,0;26,55
12273,8;26,55
12277,5;26,56
12281,3;26,56
12285,0;26,56
12288,8;26,56
12292,5;26,57
12296,3;26,57
12300,0;26,58
12303,8;26,58
12307,5;26,58
12311,3;26,59
12315,0;26,60
12318,8;26,60
12322,5;26,60
12326,3;26,61
12330,0;26,61
12333,8;26,61
12337,5;26,61
12341,3;26,60
12345,0;26,60
12348,8;26,59
12352,5;26,59
12356,3;26,59
12360,0;26,58
12363,8;26,58
12367,5;26,58
12371,3;26,58
12375,0;26,58
12378,8;26,58
12382,5;26,59
12386,3;26,60
12390,0;26,61
12393,8;26,62
12397,5;26,63
12401,3;26,65
12405,0;26,66
12408,8;26,67
12412,5;26,68
12416,3;26,68
12420,0;26,69
12423,8;26,70
12427,5;26,70
12431,3;26,70
12435,0;26,71
12438,8;26,71
12442,5;26,71
12446,3;26,72
12450,0;26,73
12453,8;26,74
12457,5;26,75
12461,3;26,76
12465,0;26,77
12468,8;26,78
12472,5;26,80
12476,3;26,81
12480,0;26,82
12483,8;26,82
12487,5;26,83
12491,3;26,84
12495,0;26,84
12498,8;26,84
12502,5;26,83
12506,3;26,83
12510,0;26,83
12513,8;26,82
12517,5;26,82
12521,3;26,81
12525,0;26,81
12528,8;26,80
12532,5;26,79
12536,3;26,79
12540,0;26,78
12543,8;26,77
12547,5;26,76
12551,3;26,75
12555,0;26,74
12558,8;26,73
12562,5;26,71
12566,3;26,70
12570,0;26,68
12573,8;26,67
12577,5;26,66
12581,3;26,65
12585,0;26,64
12588,8;26,64
12592,5;26,64
12596,3;26,64
12600,0;26,65
12603,8;26,66
12607,5;26,68
12611,3;26,70
12615,0;26,71
12618,8;26,73
12622,5;26,74
12626,3;26,76
12630,0;26,77
12633,8;26,77
12637,5;26,77
12641,3;26,77
12645,0;26,77
12648,8;26,76
12652,5;26,75
12656,3;26,73
12660,0;26,72
12663,8;26,70
12667,5;26,69
12671,3;26,67
12675,0;26,66
12678,8;26,64
12682,5;26,64
12686,3;26,63
12690,0;26,63
12693,8;26,62
12697,5;26,62
12701,3;26,63
12705,0;26,63
12708,8;26,64
12712,5;26,64
12716,3;26,64
12720,0;26,65
12723,8;26,65
12727,5;26,66
12731,3;26,66
12735,0;26,67
12738,8;26,67
12742,5;26,67
12746,3;26,68
12750,0;26,68
12753,8;26,68
12757,5;26,69
12761,3;26,69
12765,0;26,70
12768,8;26,70
12772,5;26,71
12776,3;26,71
12780,0;26,72
12783,8;26,72
12787,5;26,73
12791,3;26,73
12795,0;26,74
12798,8;26,74
12802,5;26,74
12806,3;26,74
12810,0;26,75
12813,8;26,75
12817,5;26,75
12821,3;26,76
12825,0;26,76
12828,8;26,77
12832,5;26,78
12836,3;26,78
12840,0;26,79
12843,8;26,80
12847,5;26,81
12851,3;26,82
12855,0;26,83
12858,8;26,84
12862,5;26,85
12866,3;26,85
12870,0;26,86
12873,8;26,86
12877,5;26,87
12881,3;26,87
12885,0;26,86
12888,8;26,86
12892,5;26,85
12896,3;26,85
12900,0;26,84
12903,8;26,83
12907,5;26,82
12911,3;26,81
12915,0;26,80
12918,8;26,79
12922,5;26,78
12926,3;26,77
12930,0;26,76
12933,8;26,76
12937,5;26,75
12941,3;26,75
12945,0;26,75
12948,8;26,75
12952,5;26,74
12956,3;26,74
12960,0;26,74
12963,8;26,74
12967,5;26,73
12971,3;26,73
12975,0;26,73
12978,8;26,72
12982,5;26,72
12986,3;26,71
12990,0;26,71
12993,8;26,71
12997,5;26,71
13001,3;26,71
13005,0;26,71
13008,8;26,71
13012,5;26,71
13016,3;26,71
13020,0;26,71
13023,8;26,72
13027,5;26,72
13031,3;26,72
13035,0;26,72
13038,8;26,72
13042,5;26,73
13046,3;26,72
13050,0;26,72
13053,8;26,72
13057,5;26,72
13061,3;26,71
13065,0;26,71
13068,8;26,70
13072,5;26,70
13076,3;26,69
13080,0;26,69
13083,8;26,68
13087,5;26,68
13091,3;26,67
13095,0;26,67
13098,8;26,67
13102,5;26,66
13106,3;26,66
13110,0;26,66
13113,8;26,66
13117,5;26,66
13121,3;26,65
13125,0;26,65
13128,8;26,65
13132,5;26,64
13136,3;26,64
13140,0;26,63
13143,8;26,63
13147,5;26,63
13151,3;26,62
13155,0;26,62
13158,8;26,62
13162,5;26,61
13166,3;26,61
13170,0;26,61
13173,8;26,61
13177,5;26,61
13181,3;26,61
13185,0;26,60
13188,8;26,60
13192,5;26,60
13196,3;26,60
13200,0;26,60
13203,8;26,60
13207,5;26,60
13211,3;26,59
13215,0;26,59
13218,8;26,59
13222,5;26,59
13226,3;26,60
13230,0;26,60
13233,8;26,60
13237,5;26,60
13241,3;26,61
13245,0;26,62
13248,8;26,62
13252,5;26,63
13256,3;26,63
13260,0;26,64
13263,8;26,64
13267,5;26,65
13271,3;26,65
13275,0;26,65
13278,8;26,64
13282,5;26,64
13286,3;26,63
13290,0;26,63
13293,8;26,62
13297,5;26,61
13301,3;26,60
13305,0;26,59
13308,8;26,58
13312,5;26,58
13316,3;26,57
13320,0;26,57
13323,8;26,57
13327,5;26,57
13331,3;26,58
13335,0;26,59
13338,8;26,59
13342,5;26,60
13346,3;26,61
13350,0;26,62
13353,8;26,63
13357,5;26,63
13361,3;26,64
13365,0;26,64
13368,8;26,64
13372,5;26,64
13376,3;26,63
13380,0;26,63
13383,8;26,62
13387,5;26,61
13391,3;26,59
13395,0;26,58
13398,8;26,57
13402,5;26,56
13406,3;26,54
13410,0;26,53
13413,8;26,53
13417,5;26,52
13421,3;26,52
13425,0;26,51
13428,8;26,52
13432,5;26,52
13436,3;26,53
13440,0;26,53
13443,8;26,54
13447,5;26,55
13451,3;26,57
13455,0;26,58
13458,8;26,60
13462,5;26,61
13466,3;26,62
13470,0;26,64
13473,8;26,65
13477,5;26,67
13481,3;26,68
13485,0;26,69
13488,8;26,70
13492,5;26,71
13496,3;26,72
13500,0;26,72
13503,8;26,73
13507,5;26,73
13511,3;26,73
13515,0;26,73
13518,8;26,73
13522,5;26,73
13526,3;26,73
13530,0;26,72
13533,8;26,72
13537,5;26,71
13541,3;26,71
13545,0;26,70
13548,8;26,70
13552,5;26,70
13556,3;26,69
13560,0;26,69
13563,8;26,69
13567,5;26,69
13571,3;26,69
13575,0;26,69
13578,8;26,70
13582,5;26,70
13586,3;26,71
13590,0;26,71
13593,8;26,71
13597,5;26,72
13601,3;26,72
13605,0;26,73
13608,8;26,73
13612,5;26,73
13616,3;26,74
13620,0;26,74
13623,8;26,74
13627,5;26,74
13631,3;26,75
13635,0;26,75
13638,8;26,75
13642,5;26,75
13646,3;26,76
13650,0;26,76
13653,8;26,76
13657,5;26,77
13661,3;26,78
13665,0;26,78
13668,8;26,79
13672,5;26,80
13676,3;26,80
13680,0;26,81
13683,8;26,82
13687,5;26,82
13691,3;26,82
13695,0;26,83
13698,8;26,83
13702,5;26,83
13706,3;26,84
13710,0;26,84
13713,8;26,84
13717,5;26,84
13721,3;26,84
13725,0;26,84
13728,8;26,85
13732,5;26,85
13736,3;26,85
13740,0;26,86
13743,8;26,86
13747,5;26,87
13751,3;26,88
13755,0;26,89
13758,8;26,90
13762,5;26,90
13766,3;26,91
13770,0;26,92
13773,8;26,92
13777,5;26,93
13781,3;26,93
13785,0;26,93
13788,8;26,93
13792,5;26,93
13796,3;26,92
13800,0;26,92
13803,8;26,91
13807,5;26,90
13811,3;26,89
13815,0;26,88
13818,8;26,87
13822,5;26,86
13826,3;26,85
13830,0;26,85
13833,8;26,84
13837,5;26,84
13841,3;26,85
13845,0;26,86
13848,8;26,86
13852,5;26,88
13856,3;26,89
13860,0;26,91
13863,8;26,93
13867,5;26,95
13871,3;26,97
13875,0;27,00
13878,8;27,02
13882,5;27,04
13886,3;27,06
13890,0;27,09
13893,8;27,10
13897,5;27,12
13901,3;27,14
13905,0;27,15
13908,8;27,16
13912,5;27,17
13916,3;27,18
13920,0;27,18
13923,8;27,18
13927,5;27,19
13931,3;27,19
13935,0;27,19
13938,8;27,19
13942,5;27,20
13946,3;27,20
13950,0;27,20
13953,8;27,20
13957,5;27,21
13961,3;27,21
13965,0;27,22
13968,8;27,22
13972,5;27,23
13976,3;27,23
13980,0;27,24
13983,8;27,25
13987,5;27,25
13991,3;27,26
13995,0;27,26
13998,8;27,27
14002,5;27,27
14006,3;27,28
14010,0;27,29
14013,8;27,29
14017,5;27,30
14021,3;27,31
14025,0;27,32
14028,8;27,33
14032,5;27,34
14036,3;27,36
14040,0;27,38
14043,8;27,40
14047,5;27,41
14051,3;27,43
14055,0;27,45
14058,8;27,47
14062,5;27,49
14066,3;27,51
14070,0;27,53
14073,8;27,55
14077,5;27,56
14081,3;27,57
14085,0;27,58
14088,8;27,59
14092,5;27,59
14096,3;27,59
14100,0;27,59
14103,8;27,58
14107,5;27,58
14111,3;27,57
14115,0;27,57
14118,8;27,56
14122,5;27,56
14126,3;27,55
14130,0;27,55
14133,8;27,55
14137,5;27,55
14141,3;27,55
14145,0;27,55
14148,8;27,55
14152,5;27,56
14156,3;27,57
14160,0;27,57
14163,8;27,58
14167,5;27,59
14171,3;27,60
14175,0;27,60
14178,8;27,61
14182,5;27,62
14186,3;27,62
14190,0;27,62
14193,8;27,63
14197,5;27,63
14201,3;27,63
14205,0;27,63
14208,8;27,63
14212,5;27,63
14216,3;27,63
14220,0;27,63
14223,8;27,63
14227,5;27,63
14231,3;27,63
14235,0;27,64
14238,8;27,64
14242,5;27,65
14246,3;27,65
14250,0;27,66
14253,8;27,66
14257,5;27,67
14261,3;27,67
14265,0;27,67
14268,8;27,68
14272,5;27,68
14276,3;27,67
14280,0;27,67
14283,8;27,67
14287,5;27,66
14291,3;27,66
14295,0;27,65
14298,8;27,65
14302,5;27,64
14306,3;27,63
14310,0;27,63
14313,8;27,63
14317,5;27,63
14321,3;27,63
14325,0;27,63
14328,8;27,64
14332,5;27,64
14336,3;27,65
14340,0;27,65
14343,8;27,66
14347,5;27,67
14351,3;27,68
14355,0;27,68
14358,8;27,68
14362,5;27,69
14366,3;27,69
14370,0;27,69
14373,8;27,68
14377,5;27,68
14381,3;27,67
14385,0;27,67
14388,8;27,66
14392,5;27,65
14396,3;27,65
14400,0;27,64
14403,8;27,63
14407,5;27,63
14411,3;27,63
14415,0;27,63
14418,8;27,63
14422,5;27,64
14426,3;27,65
14430,0;27,66
14433,8;27,67
14437,5;27,68
14441,3;27,70
14445,0;27,72
14448,8;27,74
14452,5;27,76
14456,3;27,78
14460,0;27,80
14463,8;27,82
14467,5;27,84
14471,3;27,86
14475,0;27,88
14478,8;27,89
14482,5;27,90
14486,3;27,91
14490,0;27,92
14493,8;27,93
14497,5;27,93
14501,3;27,93
14505,0;27,93
14508,8;27,93
14512,5;27,93
14516,3;27,93
14520,0;27,92
14523,8;27,92
14527,5;27,92
14531,3;27,91
14535,0;27,91
14538,8;27,90
14542,5;27,89
14546,3;27,89
14550,0;27,88
14553,8;27,87
14557,5;27,87
14561,3;27,86
14565,0;27,85
14568,8;27,84
14572,5;27,83
14576,3;27,81
14580,0;27,80
14583,8;27,78
14587,5;27,77
14591,3;27,75
14595,0;27,74
14598,8;27,72
14602,5;27,71
14606,3;27,69
14610,0;27,68
14613,8;27,67
14617,5;27,66
14621,3;27,66
14625,0;27,65
14628,8;27,66
14632,5;27,66
14636,3;27,67
14640,0;27,68
14643,8;27,69
14647,5;27,71
14651,3;27,72
14655,0;27,74
14658,8;27,76
14662,5;27,78
14666,3;27,80
14670,0;27,82
14673,8;27,84
14677,5;27,85
14681,3;27,87
14685,0;27,88
14688,8;27,90
14692,5;27,90
14696,3;27,91
14700,0;27,91
14703,8;27,91
14707,5;27,91
14711,3;27,91
14715,0;27,91
14718,8;27,91
14722,5;27,90
14726,3;27,90
14730,0;27,89
14733,8;27,89
14737,5;27,89
14741,3;27,89
14745,0;27,89
14748,8;27,89
14752,5;27,89
14756,3;27,90
14760,0;27,90
14763,8;27,91
14767,5;27,91
14771,3;27,92
14775,0;27,92
14778,8;27,92
14782,5;27,92
14786,3;27,92
14790,0;27,92
14793,8;27,91
14797,5;27,91
14801,3;27,90
14805,0;27,89
14808,8;27,88
14812,5;27,87
14816,3;27,85
14820,0;27,84
14823,8;27,83
14827,5;27,82
14831,3;27,81
14835,0;27,80
14838,8;27,79
14842,5;27,78
14846,3;27,78
14850,0;27,78
14853,8;27,78
14857,5;27,79
14861,3;27,80
14865,0;27,80
14868,8;27,82
14872,5;27,83
14876,3;27,85
14880,0;27,87
14883,8;27,89
14887,5;27,91
14891,3;27,93
14895,0;27,95
14898,8;27,97
14902,5;27,99
14906,3;28,01
14910,0;28,03
14913,8;28,04
14917,5;28,06
14921,3;28,07
14925,0;28,09
14928,8;28,09
14932,5;28,10
14936,3;28,10
14940,0;28,10
14943,8;28,09
14947,5;28,08
14951,3;28,06
14955,0;28,05
14958,8;28,03
14962,5;28,01
14966,3;27,98
14970,0;27,96
14973,8;27,93
14977,5;27,91
14981,3;27,89
14985,0;27,87
14988,8;27,85
14992,5;27,83
14996,3;27,81
15000,0;27,80
15003,8;27,78
15007,5;27,77
15011,3;27,76
15015,0;27,75
15018,8;27,74
15022,5;27,73
15026,3;27,73
15030,0;27,73
15033,8;27,74
15037,5;27,75
15041,3;27,75
15045,0;27,77
15048,8;27,78
15052,5;27,80
15056,3;27,82
15060,0;27,84
15063,8;27,87
15067,5;27,89
15071,3;27,91
15075,0;27,94
15078,8;27,96
15082,5;27,98
15086,3;28,01
15090,0;28,03
15093,8;28,04
15097,5;28,06
15101,3;28,08
15105,0;28,09
15108,8;28,10
15112,5;28,11
15116,3;28,11
15120,0;28,12
15123,8;28,12
15127,5;28,11
15131,3;28,11
15135,0;28,11
15138,8;28,10
15142,5;28,09
15146,3;28,08
15150,0;28,07
15153,8;28,06
15157,5;28,05
15161,3;28,04
15165,0;28,03
15168,8;28,01
15172,5;28,00
15176,3;27,99
15180,0;27,98
15183,8;27,97
15187,5;27,96
15191,3;27,94
15195,0;27,93
15198,8;27,93
15202,5;27,92
15206,3;27,91
15210,0;27,90
15213,8;27,90
15217,5;27,89
15221,3;27,89
15225,0;27,89
15228,8;27,89
15232,5;27,89
15236,3;27,89
15240,0;27,89
15243,8;27,90
15247,5;27,90
15251,3;27,91
15255,0;27,92
15258,8;27,93
15262,5;27,94
15266,3;27,96
15270,0;27,97
15273,8;27,99
15277,5;28,00
15281,3;28,01
15285,0;28,03
15288,8;28,05
15292,5;28,06
15296,3;28,07
15300,0;28,08
15303,8;28,09
15307,5;28,10
15311,3;28,11
15315,0;28,11
15318,8;28,12
15322,5;28,12
15326,3;28,11
15330,0;28,11
15333,8;28,10
15337,5;28,09
15341,3;28,09
15345,0;28,08
15348,8;28,07
15352,5;28,06
15356,3;28,05
15360,0;28,04
15363,8;28,04
15367,5;28,03
15371,3;28,03
15375,0;28,04
15378,8;28,04
15382,5;28,05
15386,3;28,06
15390,0;28,07
15393,8;28,08
15397,5;28,10
15401,3;28,12
15405,0;28,14
15408,8;28,16
15412,5;28,18
15416,3;28,19
15420,0;28,21
15423,8;28,22
15427,5;28,24
15431,3;28,25
15435,0;28,26
15438,8;28,27
15442,5;28,28
15446,3;28,28
15450,0;28,28
15453,8;28,27
15457,5;28,27
15461,3;28,26
15465,0;28,26
15468,8;28,25
15472,5;28,24
15476,3;28,22
15480,0;28,21
15483,8;28,20
15487,5;28,19
15491,3;28,18
15495,0;28,17
15498,8;28,16
15502,5;28,16
15506,3;28,15
15510,0;28,14
15513,8;28,14
15517,5;28,13
15521,3;28,13
15525,0;28,12
15528,8;28,12
15532,5;28,11
15536,3;28,10
15540,0;28,10
15543,8;28,09
15547,5;28,08
15551,3;28,07
15555,0;28,06
15558,8;28,05
15562,5;28,04
15566,3;28,03
15570,0;28,02
15573,8;28,00
15577,5;27,99
15581,3;27,98
15585,0;27,98
15588,8;27,97
15592,5;27,97
15596,3;27,97
15600,0;27,97
15603,8;27,97
15607,5;27,97
15611,3;27,98
15615,0;27,99
15618,8;28,00
15622,5;28,01
15626,3;28,03
15630,0;28,04
15633,8;28,05
15637,5;28,06
15641,3;28,07
15645,0;28,08
15648,8;28,10
15652,5;28,11
15656,3;28,11
15660,0;28,12
15663,8;28,12
15667,5;28,12
15671,3;28,11
15675,0;28,11
15678,8;28,11
15682,5;28,10
15686,3;28,09
15690,0;28,08
15693,8;28,07
15697,5;28,06
15701,3;28,05
15705,0;28,03
15708,8;28,03
15712,5;28,02
15716,3;28,01
15720,0;28,00
15723,8;28,00
15727,5;27,99
15731,3;27,99
15735,0;27,99
15738,8;27,99
15742,5;27,99
15746,3;28,00
15750,0;28,00
15753,8;28,01
15757,5;28,01
15761,3;28,01
15765,0;28,02
15768,8;28,02
15772,5;28,02
15776,3;28,02
15780,0;28,02
15783,8;28,02
15787,5;28,02
15791,3;28,01
15795,0;28,00
15798,8;27,99
15802,5;27,98
15806,3;27,97
15810,0;27,96
15813,8;27,95
15817,5;27,93
15821,3;27,91
15825,0;27,90
15828,8;27,88
15832,5;27,87
15836,3;27,85
15840,0;27,84
15843,8;27,82
15847,5;27,81
15851,3;27,79
15855,0;27,78
15858,8;27,76
15862,5;27,75
15866,3;27,73
15870,0;27,72
15873,8;27,70
15877,5;27,69
15881,3;27,67
15885,0;27,64
15888,8;27,62
15892,5;27,60
15896,3;27,57
15900,0;27,54
15903,8;27,51
15907,5;27,48
15911,3;27,44
15915,0;27,40
15918,8;27,35
15922,5;27,31
15926,3;27,26
15930,0;27,21
15933,8;27,16
15937,5;27,11
15941,3;27,05
15945,0;27,00
15948,8;26,94
15952,5;26,88
15956,3;26,83
15960,0;26,78
15963,8;26,72
15967,5;26,67
15971,3;26,62
15975,0;26,57
15978,8;26,52
15982,5;26,47
15986,3;26,43
15990,0;26,38
15993,8;26,34
15997,5;26,29
16001,3;26,25
16005,0;26,21
16008,8;26,17
16012,5;26,13
16016,3;26,09
16020,0;26,05
16023,8;26,01
16027,5;25,97
16031,3;25,93
16035,0;25,90
16038,8;25,86
16042,5;25,83
16046,3;25,80
16050,0;25,77
16053,8;25,74
16057,5;25,72
16061,3;25,69
16065,0;25,67
16068,8;25,66
16072,5;25,64
16076,3;25,63
16080,0;25,62
16083,8;25,62
16087,5;25,61
16091,3;25,61
16095,0;25,62
16098,8;25,62
16102,5;25,63
16106,3;25,64
16110,0;25,65
16113,8;25,65
16117,5;25,66
16121,3;25,67
16125,0;25,69
16128,8;25,70
16132,5;25,71
16136,3;25,71
16140,0;25,72
16143,8;25,72
16147,5;25,73
16151,3;25,73
16155,0;25,73
16158,8;25,73
16162,5;25,73
16166,3;25,72
16170,0;25,72
16173,8;25,71
16177,5;25,71
16181,3;25,70
16185,0;25,69
16188,8;25,69
16192,5;25,68
16196,3;25,68
16200,0;25,67
16203,8;25,67
16207,5;25,67
16211,3;25,67
16215,0;25,66
16218,8;25,66
16222,5;25,66
16226,3;25,67
16230,0;25,67
16233,8;25,67
16237,5;25,67
16241,3;25,67
16245,0;25,68
16248,8;25,68
16252,5;25,68
16256,3;25,68
16260,0;25,67
16263,8;25,67
16267,5;25,67
16271,3;25,66
16275,0;25,66
16278,8;25,65
16282,5;25,64
16286,3;25,62
16290,0;25,61
16293,8;25,60
16297,5;25,59
16301,3;25,57
16305,0;25,56
16308,8;25,54
16312,5;25,52
16316,3;25,51
16320,0;25,49
16323,8;25,48
16327,5;25,47
16331,3;25,46
16335,0;25,45
16338,8;25,43
16342,5;25,43
16346,3;25,42
16350,0;25,41
16353,8;25,41
16357,5;25,41
16361,3;25,41
16365,0;25,41
16368,8;25,41
16372,5;25,41
16376,3;25,42
16380,0;25,42
16383,8;25,43
16387,5;25,44
16391,3;25,45
16395,0;25,46
16398,8;25,47
16402,5;25,48
16406,3;25,49
16410,0;25,50
16413,8;25,51
16417,5;25,52
16421,3;25,53
16425,0;25,54
16428,8;25,55
16432,5;25,56
16436,3;25,57
16440,0;25,58
16443,8;25,59
16447,5;25,61
16451,3;25,62
16455,0;25,63
16458,8;25,64
16462,5;25,65
16466,3;25,67
16470,0;25,68
16473,8;25,69
16477,5;25,71
16481,3;25,72
16485,0;25,73
16488,8;25,75
16492,5;25,76
16496,3;25,78
16500,0;25,79
16503,8;25,81
16507,5;25,82
16511,3;25,84
16515,0;25,85
16518,8;25,87
16522,5;25,88
16526,3;25,89
16530,0;25,90
16533,8;25,92
16537,5;25,93
16541,3;25,94
16545,0;25,95
16548,8;25,96
16552,5;25,97
16556,3;25,98
16560,0;25,99
16563,8;26,01
16567,5;26,02
16571,3;26,03
16575,0;26,05
16578,8;26,06
16582,5;26,08
16586,3;26,10
16590,0;26,12
16593,8;26,14
16597,5;26,17
16601,3;26,19
16605,0;26,22
16608,8;26,25
16612,5;26,28
16616,3;26,31
16620,0;26,34
16623,8;26,38
16627,5;26,41
16631,3;26,45
16635,0;26,49
16638,8;26,53
16642,5;26,56
16646,3;26,60
16650,0;26,63
16653,8;26,66
16657,5;26,69
16661,3;26,72
16665,0;26,75
16668,8;26,77
16672,5;26,80
16676,3;26,82
16680,0;26,84
16683,8;26,85
16687,5;26,87
16691,3;26,88
16695,0;26,89
16698,8;26,90
16702,5;26,91
16706,3;26,92
16710,0;26,93
16713,8;26,94
16717,5;26,94
16721,3;26,95
16725,0;26,96
16728,8;26,96
16732,5;26,98
16736,3;26,99
16740,0;27,00
16743,8;27,02
16747,5;27,04
16751,3;27,05
16755,0;27,07
16758,8;27,09
16762,5;27,11
16766,3;27,14
16770,0;27,16
16773,8;27,19
16777,5;27,21
16781,3;27,24
16785,0;27,27
16788,8;27,29
16792,5;27,31
16796,3;27,33
16800,0;27,35
16803,8;27,37
16807,5;27,39
16811,3;27,41
16815,0;27,42
16818,8;27,44
16822,5;27,45
16826,3;27,45
16830,0;27,46
16833,8;27,47
16837,5;27,47
16841,3;27,47
16845,0;27,48
16848,8;27,48
16852,5;27,48
16856,3;27,48
16860,0;27,48
16863,8;27,48
16867,5;27,49
16871,3;27,49
16875,0;27,49
16878,8;27,50
16882,5;27,51
16886,3;27,52
16890,0;27,53
16893,8;27,54
16897,5;27,55
16901,3;27,56
16905,0;27,58
16908,8;27,59
16912,5;27,61
16916,3;27,63
16920,0;27,65
16923,8;27,67
16927,5;27,69
16931,3;27,71
16935,0;27,73
16938,8;27,75
16942,5;27,77
16946,3;27,79
16950,0;27,81
16953,8;27,83
16957,5;27,84
16961,3;27,86
16965,0;27,88
16968,8;27,89
16972,5;27,90
16976,3;27,92
16980,0;27,93
16983,8;27,94
16987,5;27,96
16991,3;27,97
16995,0;27,98
16998,8;27,99
17002,5;28,00
17006,3;28,01
17010,0;28,02
17013,8;28,03
17017,5;28,04
17021,3;28,06
17025,0;28,07
17028,8;28,08
17032,5;28,09
17036,3;28,10
17040,0;28,11
17043,8;28,12
17047,5;28,12
17051,3;28,13
17055,0;28,14
17058,8;28,14
17062,5;28,15
17066,3;28,15
17070,0;28,16
17073,8;28,16
17077,5;28,16
17081,3;28,16
17085,0;28,15
17088,8;28,15
17092,5;28,15
17096,3;28,14
17100,0;28,13
17103,8;28,13
17107,5;28,12
17111,3;28,11
17115,0;28,10
17118,8;28,09
17122,5;28,08
17126,3;28,08
17130,0;28,07
17133,8;28,06
17137,5;28,06
17141,3;28,06
17145,0;28,05
17148,8;28,05
17152,5;28,05
17156,3;28,06
17160,0;28,06
17163,8;28,07
17167,5;28,08
17171,3;28,09
17175,0;28,10
17178,8;28,12
17182,5;28,13
17186,3;28,15
17190,0;28,16
17193,8;28,18
17197,5;28,19
17201,3;28,21
17205,0;28,23
17208,8;28,25
17212,5;28,27
17216,3;28,29
17220,0;28,30
17223,8;28,31
17227,5;28,33
17231,3;28,34
17235,0;28,35
17238,8;28,36
17242,5;28,37
17246,3;28,38
17250,0;28,38
17253,8;28,39
17257,5;28,40
17261,3;28,40
17265,0;28,41
17268,8;28,41
17272,5;28,41
17276,3;28,42
17280,0;28,43
17283,8;28,43
17287,5;28,44
17291,3;28,45
17295,0;28,46
17298,8;28,47
17302,5;28,48
17306,3;28,49
17310,0;28,51
17313,8;28,52
17317,5;28,54
17321,3;28,55
17325,0;28,57
17328,8;28,59
17332,5;28,61
17336,3;28,62
17340,0;28,63
17343,8;28,65
17347,5;28,66
17351,3;28,67
17355,0;28,68
17358,8;28,69
17362,5;28,69
17366,3;28,70
17370,0;28,70
17373,8;28,70
17377,5;28,69
17381,3;28,69
17385,0;28,68
17388,8;28,67
17392,5;28,65
17396,3;28,64
17400,0;28,63
17403,8;28,62
17407,5;28,60
17411,3;28,59
17415,0;28,57
17418,8;28,55
17422,5;28,54
17426,3;28,52
17430,0;28,51
17433,8;28,50
17437,5;28,49
17441,3;28,49
17445,0;28,48
17448,8;28,48
17452,5;28,47
17456,3;28,47
17460,0;28,47
17463,8;28,48
17467,5;28,48
17471,3;28,49
17475,0;28,49
17478,8;28,50
17482,5;28,51
17486,3;28,52
17490,0;28,53
17493,8;28,53
17497,5;28,54
17501,3;28,55
17505,0;28,55
17508,8;28,56
17512,5;28,56
17516,3;28,57
17520,0;28,57
17523,8;28,57
17527,5;28,57
17531,3;28,56
17535,0;28,56
17538,8;28,55
17542,5;28,55
17546,3;28,54
17550,0;28,54
17553,8;28,53
17557,5;28,52
17561,3;28,52
17565,0;28,51
17568,8;28,50
17572,5;28,50
17576,3;28,49
17580,0;28,49
17583,8;28,48
17587,5;28,48
17591,3;28,48
17595,0;28,48
17598,8;28,48
17602,5;28,48
17606,3;28,48
17610,0;28,49
17613,8;28,49
17617,5;28,49
17621,3;28,49
17625,0;28,49
17628,8;28,49
17632,5;28,49
17636,3;28,49
17640,0;28,49
17643,8;28,49
17647,5;28,48
17651,3;28,47
17655,0;28,47
17658,8;28,46
17662,5;28,45
17666,3;28,43
17670,0;28,42
17673,8;28,41
17677,5;28,40
17681,3;28,38
17685,0;28,37
17688,8;28,35
17692,5;28,34
17696,3;28,32
17700,0;28,31
17703,8;28,30
17707,5;28,28
17711,3;28,28
17715,0;28,27
17718,8;28,27
17722,5;28,26
17726,3;28,26
17730,0;28,26
17733,8;28,27
17737,5;28,27
17741,3;28,28
17745,0;28,29
17748,8;28,30
17752,5;28,32
17756,3;28,34
17760,0;28,36
17763,8;28,38
17767,5;28,40
17771,3;28,42
17775,0;28,44
17778,8;28,46
17782,5;28,48
17786,3;28,51
17790,0;28,53
17793,8;28,55
17797,5;28,57
17801,3;28,59
17805,0;28,61
17808,8;28,62
17812,5;28,63
17816,3;28,64
17820,0;28,65
17823,8;28,65
17827,5;28,66
17831,3;28,66
17835,0;28,67
17838,8;28,67
17842,5;28,67
17846,3;28,66
17850,0;28,66
17853,8;28,65
17857,5;28,65
17861,3;28,64
17865,0;28,64
17868,8;28,64
17872,5;28,64
17876,3;28,64
17880,0;28,64
17883,8;28,64
17887,5;28,64
17891,3;28,64
17895,0;28,64
17898,8;28,65
17902,5;28,65
17906,3;28,66
17910,0;28,67
17913,8;28,68
17917,5;28,69
17921,3;28,71
17925,0;28,72
17928,8;28,73
17932,5;28,74
17936,3;28,75
17940,0;28,76
17943,8;28,77
17947,5;28,78
17951,3;28,79
17955,0;28,80
17958,8;28,81
17962,5;28,82
17966,3;28,82
17970,0;28,83
17973,8;28,83
17977,5;28,83
17981,3;28,83
17985,0;28,82
17988,8;28,82
17992,5;28,82
17996,3;28,82
18000,0;28,82
18003,8;28,82
18007,5;28,81
18011,3;28,81
18015,0;28,81
18018,8;28,80
18022,5;28,80
18026,3;28,81
18030,0;28,81
18033,8;28,82
18037,5;28,82
18041,3;28,83
18045,0;28,84
18048,8;28,85
18052,5;28,87
18056,3;28,88
18060,0;28,89
18063,8;28,91
18067,5;28,93
18071,3;28,95
18075,0;28,97
18078,8;28,99
18082,5;29,02
18086,3;29,04
18090,0;29,06
18093,8;29,07
18097,5;29,09
18101,3;29,11
18105,0;29,12
18108,8;29,14
18112,5;29,15
18116,3;29,16
18120,0;29,17
18123,8;29,18
18127,5;29,19
18131,3;29,19
18135,0;29,19
18138,8;29,19
18142,5;29,18
18146,3;29,18
18150,0;29,17
18153,8;29,17
18157,5;29,16
18161,3;29,16
18165,0;29,15
18168,8;29,14
18172,5;29,13
18176,3;29,13
18180,0;29,12
18183,8;29,11
18187,5;29,11
18191,3;29,10
18195,0;29,10
18198,8;29,10
18202,5;29,10
18206,3;29,11
18210,0;29,11
18213,8;29,12
18217,5;29,12
18221,3;29,13
18225,0;29,13
18228,8;29,14
18232,5;29,15
18236,3;29,16
18240,0;29,17
18243,8;29,18
18247,5;29,19
18251,3;29,20
18255,0;29,21
18258,8;29,21
18262,5;29,22
18266,3;29,22
18270,0;29,22
18273,8;29,22
18277,5;29,22
18281,3;29,22
18285,0;29,21
18288,8;29,21
18292,5;29,20
18296,3;29,20
18300,0;29,19
18303,8;29,18
18307,5;29,16
18311,3;29,15
18315,0;29,14
18318,8;29,13
18322,5;29,12
18326,3;29,11
18330,0;29,10
18333,8;29,10
18337,5;29,09
18341,3;29,08
18345,0;29,08
18348,8;29,07
18352,5;29,07
18356,3;29,07
18360,0;29,08
18363,8;29,08
18367,5;29,09
18371,3;29,10
18375,0;29,11
18378,8;29,12
18382,5;29,13
18386,3;29,15
18390,0;29,16
18393,8;29,17
18397,5;29,18
18401,3;29,19
18405,0;29,21
18408,8;29,22
18412,5;29,23
18416,3;29,25
18420,0;29,26
18423,8;29,26
18427,5;29,27
18431,3;29,27
18435,0;29,27
18438,8;29,27
18442,5;29,27
18446,3;29,26
18450,0;29,25
18453,8;29,25
18457,5;29,24
18461,3;29,23
18465,0;29,22
18468,8;29,21
18472,5;29,20
18476,3;29,18
18480,0;29,16
18483,8;29,15
18487,5;29,14
18491,3;29,12
18495,0;29,11
18498,8;29,11
18502,5;29,10
18506,3;29,10
18510,0;29,09
18513,8;29,09
18517,5;29,09
18521,3;29,09
18525,0;29,09
18528,8;29,10
18532,5;29,10
18536,3;29,11
18540,0;29,13
18543,8;29,14
18547,5;29,16
18551,3;29,18
18555,0;29,20
18558,8;29,21
18562,5;29,23
18566,3;29,25
18570,0;29,26
18573,8;29,28
18577,5;29,30
18581,3;29,32
18585,0;29,34
18588,8;29,35
18592,5;29,37
18596,3;29,38
18600,0;29,39
18603,8;29,40
18607,5;29,40
18611,3;29,41
18615,0;29,41
18618,8;29,41
18622,5;29,41
18626,3;29,41
18630,0;29,40
18633,8;29,40
18637,5;29,40
18641,3;29,39
18645,0;29,38
18648,8;29,37
18652,5;29,36
18656,3;29,35
18660,0;29,34
18663,8;29,34
18667,5;29,33
18671,3;29,33
18675,0;29,32
18678,8;29,32
18682,5;29,32
18686,3;29,32
18690,0;29,32
18693,8;29,32
18697,5;29,32
18701,3;29,32
18705,0;29,33
18708,8;29,33
18712,5;29,34
18716,3;29,35
18720,0;29,36
18723,8;29,37
18727,5;29,38
18731,3;29,39
18735,0;29,40
18738,8;29,41
18742,5;29,42
18746,3;29,43
18750,0;29,43
18753,8;29,44
18757,5;29,44
18761,3;29,45
18765,0;29,45
18768,8;29,45
18772,5;29,45
18776,3;29,44
18780,0;29,44
18783,8;29,43
18787,5;29,42
18791,3;29,41
18795,0;29,39
18798,8;29,38
18802,5;29,37
18806,3;29,35
18810,0;29,34
18813,8;29,33
18817,5;29,31
18821,3;29,29
18825,0;29,28
18828,8;29,26
18832,5;29,25
18836,3;29,23
18840,0;29,22
18843,8;29,21
18847,5;29,21
18851,3;29,20
18855,0;29,20
18858,8;29,20
18862,5;29,20
18866,3;29,20
18870,0;29,20
18873,8;29,21
18877,5;29,22
18881,3;29,23
18885,0;29,24
18888,8;29,25
18892,5;29,27
18896,3;29,29
18900,0;29,31
18903,8;29,33
18907,5;29,34
18911,3;29,36
18915,0;29,38
18918,8;29,40
18922,5;29,41
18926,3;29,43
18930,0;29,45
18933,8;29,46
18937,5;29,48
18941,3;29,49
18945,0;29,51
18948,8;29,52
18952,5;29,53
18956,3;29,53
18960,0;29,54
18963,8;29,54
18967,5;29,54
18971,3;29,54
18975,0;29,54
18978,8;29,54
18982,5;29,54
18986,3;29,54
18990,0;29,54
18993,8;29,54
18997,5;29,53
19001,3;29,53
19005,0;29,52
19008,8;29,52
19012,5;29,51
19016,3;29,51
19020,0;29,51
19023,8;29,51
19027,5;29,51
19031,3;29,51
19035,0;29,52
19038,8;29,52
19042,5;29,52
19046,3;29,53
19050,0;29,54
19053,8;29,54
19057,5;29,55
19061,3;29,55
19065,0;29,56
19068,8;29,56
19072,5;29,57
19076,3;29,58
19080,0;29,59
19083,8;29,59
19087,5;29,60
19091,3;29,60
19095,0;29,60
19098,8;29,60
19102,5;29,60
19106,3;29,60
19110,0;29,59
19113,8;29,59
19117,5;29,58
19121,3;29,57
19125,0;29,56
19128,8;29,55
19132,5;29,54
19136,3;29,53
19140,0;29,51
19143,8;29,49
19147,5;29,48
19151,3;29,46
19155,0;29,44
19158,8;29,42
19162,5;29,40
19166,3;29,39
19170,0;29,37
19173,8;29,36
19177,5;29,35
19181,3;29,33
19185,0;29,32
19188,8;29,31
19192,5;29,30
19196,3;29,30
19200,0;29,29
19203,8;29,29
19207,5;29,29
19211,3;29,29
19215,0;29,30
19218,8;29,30
19222,5;29,31
19226,3;29,32
19230,0;29,34
19233,8;29,35
19237,5;29,36
19241,3;29,37
19245,0;29,39
19248,8;29,40
19252,5;29,41
19256,3;29,43
19260,0;29,45
19263,8;29,46
19267,5;29,48
19271,3;29,49
19275,0;29,50
19278,8;29,51
19282,5;29,52
19286,3;29,53
19290,0;29,53
19293,8;29,53
19297,5;29,53
19301,3;29,54
19305,0;29,53
19308,8;29,53
19312,5;29,53
19316,3;29,53
19320,0;29,52
19323,8;29,51
19327,5;29,51
19331,3;29,49
19335,0;29,48
19338,8;29,47
19342,5;29,46
19346,3;29,45
19350,0;29,44
19353,8;29,44
19357,5;29,43
19361,3;29,43
19365,0;29,42
19368,8;29,42
19372,5;29,42
19376,3;29,42
19380,0;29,42
19383,8;29,42
19387,5;29,43
19391,3;29,43
19395,0;29,44
19398,8;29,45
19402,5;29,47
19406,3;29,48
19410,0;29,50
19413,8;29,52
19417,5;29,54
19421,3;29,56
19425,0;29,58
19428,8;29,60
19432,5;29,62
19436,3;29,64
19440,0;29,66
19443,8;29,68
19447,5;29,70
19451,3;29,72
19455,0;29,75
19458,8;29,76
19462,5;29,78
19466,3;29,80
19470,0;29,81
19473,8;29,82
19477,5;29,83
19481,3;29,84
19485,0;29,85
19488,8;29,85
19492,5;29,86
19496,3;29,86
19500,0;29,86
19503,8;29,87
19507,5;29,87
19511,3;29,86
19515,0;29,86
19518,8;29,86
19522,5;29,85
19526,3;29,84
19530,0;29,84
19533,8;29,83
19537,5;29,82
19541,3;29,82
19545,0;29,81
19548,8;29,81
19552,5;29,80
19556,3;29,80
19560,0;29,80
19563,8;29,79
19567,5;29,79
19571,3;29,79
19575,0;29,78
19578,8;29,78
19582,5;29,78
19586,3;29,78
19590,0;29,79
19593,8;29,79
19597,5;29,79
19601,3;29,80
19605,0;29,80
19608,8;29,81
19612,5;29,81
19616,3;29,82
19620,0;29,82
19623,8;29,82
19627,5;29,82
19631,3;29,82
19635,0;29,83
19638,8;29,83
19642,5;29,83
19646,3;29,83
19650,0;29,83
19653,8;29,83
19657,5;29,83
19661,3;29,82
19665,0;29,82
19668,8;29,81
19672,5;29,80
19676,3;29,79
19680,0;29,78
19683,8;29,77
19687,5;29,76
19691,3;29,76
19695,0;29,75
19698,8;29,74
19702,5;29,73
19706,3;29,72
19710,0;29,72
19713,8;29,71
19717,5;29,70
19721,3;29,69
19725,0;29,69
19728,8;29,68
19732,5;29,68
19736,3;29,68
19740,0;29,68
19743,8;29,69
19747,5;29,70
19751,3;29,71
19755,0;29,72
19758,8;29,73
19762,5;29,74
19766,3;29,75
19770,0;29,77
19773,8;29,79
19777,5;29,80
19781,3;29,82
19785,0;29,85
19788,8;29,87
19792,5;29,90
19796,3;29,92
19800,0;29,95
19803,8;29,98
19807,5;30,00
19811,3;30,03
19815,0;30,05
19818,8;30,07
19822,5;30,09
19826,3;30,11
19830,0;30,13
19833,8;30,15
19837,5;30,17
19841,3;30,19
19845,0;30,21
19848,8;30,22
19852,5;30,23
19856,3;30,24
19860,0;30,24
19863,8;30,25
19867,5;30,25
19871,3;30,25
19875,0;30,25
19878,8;30,24
19882,5;30,24
19886,3;30,23
19890,0;30,23
19893,8;30,22
19897,5;30,21
19901,3;30,20
19905,0;30,19
19908,8;30,18
19912,5;30,17
19916,3;30,15
19920,0;30,14
19923,8;30,13
19927,5;30,12
19931,3;30,11
19935,0;30,10
19938,8;30,09
19942,5;30,08
19946,3;30,08
19950,0;30,07
19953,8;30,07
19957,5;30,06
19961,3;30,06
19965,0;30,06
19968,8;30,05
19972,5;30,05
19976,3;30,06
19980,0;30,06
19983,8;30,06
19987,5;30,07
19991,3;30,07
19995,0;30,08
19998,8;30,09
20002,5;30,09
20006,3;30,10
20010,0;30,11
20013,8;30,11
20017,5;30,12
20021,3;30,12
20025,0;30,13
20028,8;30,13
20032,5;30,14
20036,3;30,15
20040,0;30,15
20043,8;30,16
20047,5;30,16
20051,3;30,17
20055,0;30,17
20058,8;30,17
20062,5;30,17
20066,3;30,18
20070,0;30,18
20073,8;30,18
20077,5;30,18
20081,3;30,18
20085,0;30,18
20088,8;30,19
20092,5;30,19
20096,3;30,20
20100,0;30,21
20103,8;30,21
20107,5;30,22
20111,3;30,23
20115,0;30,24
20118,8;30,25
20122,5;30,26
20126,3;30,28
20130,0;30,29
20133,8;30,31
20137,5;30,32
20141,3;30,34
20145,0;30,37
20148,8;30,39
20152,5;30,41
20156,3;30,44
20160,0;30,47
20163,8;30,49
20167,5;30,52
20171,3;30,54
20175,0;30,57
20178,8;30,59
20182,5;30,62
20186,3;30,64
20190,0;30,67
20193,8;30,70
20197,5;30,73
20201,3;30,75
20205,0;30,77
20208,8;30,80
20212,5;30,82
20216,3;30,83
20220,0;30,85
20223,8;30,86
20227,5;30,88
20231,3;30,89
20235,0;30,90
20238,8;30,91
20242,5;30,91
20246,3;30,92
20250,0;30,92
20253,8;30,93
20257,5;30,93
20261,3;30,93
20265,0;30,93
20268,8;30,92
20272,5;30,92
20276,3;30,91
20280,0;30,90
20283,8;30,90
20287,5;30,89
20291,3;30,88
20295,0;30,88
20298,8;30,87
20302,5;30,87
20306,3;30,87
20310,0;30,86
20313,8;30,86
20317,5;30,86
20321,3;30,85
20325,0;30,85
20328,8;30,85
20332,5;30,85
20336,3;30,85
20340,0;30,86
20343,8;30,86
20347,5;30,87
20351,3;30,88
20355,0;30,89
20358,8;30,90
20362,5;30,91
20366,3;30,93
20370,0;30,94
20373,8;30,95
20377,5;30,96
20381,3;30,97
20385,0;30,98
20388,8;31,00
20392,5;31,01
20396,3;31,02
20400,0;31,03
20403,8;31,05
20407,5;31,06
20411,3;31,07
20415,0;31,08
20418,8;31,08
20422,5;31,09
20426,3;31,09
20430,0;31,09
20433,8;31,09
20437,5;31,09
20441,3;31,08
20445,0;31,08
20448,8;31,07
20452,5;31,07
20456,3;31,06
20460,0;31,05
20463,8;31,04
20467,5;31,03
20471,3;31,02
20475,0;31,01
20478,8;31,00
20482,5;30,98
20486,3;30,97
20490,0;30,95
20493,8;30,94
20497,5;30,92
20501,3;30,91
20505,0;30,90
20508,8;30,89
20512,5;30,89
20516,3;30,88
20520,0;30,87
20523,8;30,86
20527,5;30,86
20531,3;30,85
20535,0;30,85
20538,8;30,85
20542,5;30,85
20546,3;30,85
20550,0;30,85
20553,8;30,85
20557,5;30,85
20561,3;30,86
20565,0;30,87
20568,8;30,87
20572,5;30,88
20576,3;30,89
20580,0;30,90
20583,8;30,90
20587,5;30,91
20591,3;30,91
20595,0;30,91
20598,8;30,92
20602,5;30,92
20606,3;30,92
20610,0;30,92
20613,8;30,92
20617,5;30,92
20621,3;30,92
20625,0;30,92
20628,8;30,92
20632,5;30,91
20636,3;30,90
20640,0;30,89
20643,8;30,87
20647,5;30,86
20651,3;30,84
20655,0;30,82
20658,8;30,80
20662,5;30,78
20666,3;30,76
20670,0;30,74
20673,8;30,72
20677,5;30,71
20681,3;30,69
20685,0;30,67
20688,8;30,64
20692,5;30,62
20696,3;30,60
20700,0;30,58
20703,8;30,56
20707,5;30,54
20711,3;30,52
20715,0;30,51
20718,8;30,50
20722,5;30,49
20726,3;30,48
20730,0;30,48
20733,8;30,47
20737,5;30,47
20741,3;30,47
20745,0;30,47
20748,8;30,47
20752,5;30,48
20756,3;30,48
20760,0;30,49
20763,8;30,50
20767,5;30,51
20771,3;30,53
20775,0;30,54
20778,8;30,56
20782,5;30,58
20786,3;30,60
20790,0;30,62
20793,8;30,64
20797,5;30,66
20801,3;30,68
20805,0;30,69
20808,8;30,71
20812,5;30,72
20816,3;30,74
20820,0;30,75
20823,8;30,76
20827,5;30,78
20831,3;30,79
20835,0;30,80
20838,8;30,81
20842,5;30,82
20846,3;30,82
20850,0;30,83
20853,8;30,83
20857,5;30,83
20861,3;30,82
20865,0;30,82
20868,8;30,81
20872,5;30,81
20876,3;30,80
20880,0;30,79
20883,8;30,79
20887,5;30,78
20891,3;30,78
20895,0;30,77
20898,8;30,77
20902,5;30,76
20906,3;30,76
20910,0;30,75
20913,8;30,74
20917,5;30,74
20921,3;30,74
20925,0;30,73
20928,8;30,74
20932,5;30,74
20936,3;30,74
20940,0;30,75
20943,8;30,76
20947,5;30,78
20951,3;30,79
20955,0;30,81
20958,8;30,83
20962,5;30,84
20966,3;30,86
20970,0;30,88
20973,8;30,91
20977,5;30,93
20981,3;30,95
20985,0;30,97
20988,8;31,00
20992,5;31,03
20996,3;31,06
21000,0;31,09
21003,8;31,12
21007,5;31,15
21011,3;31,18
21015,0;31,20
21018,8;31,23
21022,5;31,25
21026,3;31,27
21030,0;31,29
21033,8;31,31
21037,5;31,32
21041,3;31,34
21045,0;31,35
21048,8;31,36
21052,5;31,37
21056,3;31,38
21060,0;31,39
21063,8;31,40
21067,5;31,40
21071,3;31,40
21075,0;31,40
21078,8;31,39
21082,5;31,38
21086,3;31,37
21090,0;31,36
21093,8;31,35
21097,5;31,34
21101,3;31,33
21105,0;31,32
21108,8;31,31
21112,5;31,30
21116,3;31,29
21120,0;31,28
21123,8;31,27
21127,5;31,25
21131,3;31,24
21135,0;31,23
21138,8;31,22
21142,5;31,21
21146,3;31,20
21150,0;31,20
21153,8;31,19
21157,5;31,19
21161,3;31,19
21165,0;31,19
21168,8;31,19
21172,5;31,19
21176,3;31,20
21180,0;31,20
21183,8;31,21
21187,5;31,21
21191,3;31,22
21195,0;31,22
21198,8;31,23
21202,5;31,23
21206,3;31,24
21210,0;31,24
21213,8;31,25
21217,5;31,26
21221,3;31,26
21225,0;31,27
21228,8;31,28
21232,5;31,28
21236,3;31,28
21240,0;31,29
21243,8;31,29
21247,5;31,29
21251,3;31,28
21255,0;31,28
21258,8;31,27
21262,5;31,27
21266,3;31,26
21270,0;31,25
21273,8;31,24
21277,5;31,23
21281,3;31,22
21285,0;31,21
21288,8;31,20
21292,5;31,19
21296,3;31,18
21300,0;31,17
21303,8;31,15
21307,5;31,14
21311,3;31,13
21315,0;31,11
21318,8;31,10
21322,5;31,09
21326,3;31,08
21330,0;31,07
21333,8;31,07
21337,5;31,06
21341,3;31,06
21345,0;31,06
21348,8;31,07
21352,5;31,07
21356,3;31,08
21360,0;31,08
21363,8;31,09
21367,5;31,10
21371,3;31,11
21375,0;31,13
21378,8;31,14
21382,5;31,15
21386,3;31,17
21390,0;31,19
21393,8;31,21
21397,5;31,24
21401,3;31,26
21405,0;31,29
21408,8;31,32
21412,5;31,34
21416,3;31,37
21420,0;31,39
21423,8;31,42
21427,5;31,44
21431,3;31,46
21435,0;31,48
21438,8;31,50
21442,5;31,52
21446,3;31,54
21450,0;31,56
21453,8;31,58
21457,5;31,59
21461,3;31,61
21465,0;31,62
21468,8;31,63
21472,5;31,64
21476,3;31,65
21480,0;31,65
21483,8;31,65
21487,5;31,65
21491,3;31,65
21495,0;31,64
21498,8;31,64
21502,5;31,63
21506,3;31,62
21510,0;31,61
21513,8;31,60
21517,5;31,60
21521,3;31,59
21525,0;31,58
21528,8;31,57
21532,5;31,56
21536,3;31,55
21540,0;31,53
21543,8;31,52
21547,5;31,51
21551,3;31,50
21555,0;31,48
21558,8;31,47
21562,5;31,47
21566,3;31,46
21570,0;31,46
21573,8;31,45
21577,5;31,45
21581,3;31,45
21585,0;31,45
21588,8;31,45
21592,5;31,46
21596,3;31,46
21600,0;31,46
21603,8;31,47
21607,5;31,47
21611,3;31,48
21615,0;31,49
21618,8;31,49
21622,5;31,50
21626,3;31,52
21630,0;31,53
21633,8;31,54
21637,5;31,56
21641,3;31,57
21645,0;31,58
21648,8;31,59
21652,5;31,60
21656,3;31,61
21660,0;31,62
21663,8;31,63
21667,5;31,63
21671,3;31,64
21675,0;31,64
21678,8;31,64
21682,5;31,65
21686,3;31,65
21690,0;31,65
21693,8;31,65
21697,5;31,65
21701,3;31,64
21705,0;31,64
21708,8;31,63
21712,5;31,62
21716,3;31,61
21720,0;31,60
21723,8;31,58
21727,5;31,57
21731,3;31,55
21735,0;31,54
21738,8;31,52
21742,5;31,50
21746,3;31,49
21750,0;31,47
21753,8;31,46
21757,5;31,45
21761,3;31,43
21765,0;31,42
21768,8;31,40
21772,5;31,39
21776,3;31,38
21780,0;31,36
21783,8;31,35
21787,5;31,34
21791,3;31,33
21795,0;31,32
21798,8;31,32
21802,5;31,31
21806,3;31,31
21810,0;31,31
21813,8;31,32
21817,5;31,32
21821,3;31,33
21825,0;31,34
21828,8;31,35
21832,5;31,36
21836,3;31,37
21840,0;31,38
21843,8;31,39
21847,5;31,40
21851,3;31,41
21855,0;31,42
21858,8;31,43
21862,5;31,44
21866,3;31,46
21870,0;31,47
21873,8;31,49
21877,5;31,50
21881,3;31,52
21885,0;31,53
21888,8;31,54
21892,5;31,55
21896,3;31,55
21900,0;31,55
21903,8;31,56
21907,5;31,55
21911,3;31,55
21915,0;31,55
21918,8;31,54
21922,5;31,54
21926,3;31,53
21930,0;31,52
21933,8;31,51
21937,5;31,50
21941,3;31,48
21945,0;31,47
21948,8;31,45
21952,5;31,43
21956,3;31,41
21960,0;31,39
21963,8;31,36
21967,5;31,33
21971,3;31,30
21975,0;31,28
21978,8;31,25
21982,5;31,22
21986,3;31,20
21990,0;31,18
21993,8;31,16
21997,5;31,14
22001,3;31,12
22005,0;31,10
22008,8;31,08
22012,5;31,06
22016,3;31,04
22020,0;31,03
22023,8;31,01
22027,5;31,00
22031,3;30,99
22035,0;30,99
22038,8;30,98
22042,5;30,98
22046,3;30,98
22050,0;30,99
22053,8;31,00
22057,5;31,01
22061,3;31,03
22065,0;31,04
22068,8;31,06
22072,5;31,08
22076,3;31,10
22080,0;31,13
22083,8;31,15
22087,5;31,17
22091,3;31,20
22095,0;31,22
22098,8;31,25
22102,5;31,28
22106,3;31,31
22110,0;31,34
22113,8;31,38
22117,5;31,41
22121,3;31,44
22125,0;31,48
22128,8;31,51
22132,5;31,54
22136,3;31,56
22140,0;31,58
22143,8;31,60
22147,5;31,62
22151,3;31,64
22155,0;31,65
22158,8;31,67
22162,5;31,68
22166,3;31,69
22170,0;31,70
22173,8;31,70
22177,5;31,71
22181,3;31,71
22185,0;31,71
22188,8;31,71
22192,5;31,70
22196,3;31,69
22200,0;31,68
22203,8;31,66
22207,5;31,65
22211,3;31,63
22215,0;31,60
22218,8;31,58
22222,5;31,56
22226,3;31,54
22230,0;31,51
22233,8;31,49
22237,5;31,47
22241,3;31,45
22245,0;31,43
22248,8;31,41
22252,5;31,39
22256,3;31,37
22260,0;31,35
22263,8;31,32
22267,5;31,30
22271,3;31,28
22275,0;31,27
22278,8;31,25
22282,5;31,24
22286,3;31,23
22290,0;31,22
22293,8;31,22
22297,5;31,22
22301,3;31,22
22305,0;31,22
22308,8;31,22
22312,5;31,23
22316,3;31,24
22320,0;31,25
22323,8;31,26
22327,5;31,27
22331,3;31,28
22335,0;31,29
22338,8;31,30
22342,5;31,32
22346,3;31,33
22350,0;31,35
22353,8;31,37
22357,5;31,40
22361,3;31,42
22365,0;31,44
22368,8;31,46
22372,5;31,49
22376,3;31,51
22380,0;31,53
22383,8;31,54
22387,5;31,56
22391,3;31,57
22395,0;31,58
22398,8;31,59
22402,5;31,60
22406,3;31,61
22410,0;31,62
22413,8;31,63
22417,5;31,63
22421,3;31,64
22425,0;31,64
22428,8;31,64
22432,5;31,65
22436,3;31,64
22440,0;31,64
22443,8;31,64
22447,5;31,63
22451,3;31,62
22455,0;31,61
22458,8;31,60
22462,5;31,58
22466,3;31,57
22470,0;31,56
22473,8;31,54
22477,5;31,53
22481,3;31,52
22485,0;31,51
22488,8;31,50
22492,5;31,49
22496,3;31,48
22500,0;31,47
22503,8;31,46
22507,5;31,46
22511,3;31,45
22515,0;31,44
22518,8;31,43
22522,5;31,43
22526,3;31,43
22530,0;31,43
22533,8;31,43
22537,5;31,43
22541,3;31,43
22545,0;31,44
22548,8;31,45
22552,5;31,46
22556,3;31,48
22560,0;31,49
22563,8;31,51
22567,5;31,53
22571,3;31,55
22575,0;31,57
22578,8;31,59
22582,5;31,61
22586,3;31,62
22590,0;31,64
22593,8;31,66
22597,5;31,69
22601,3;31,71
22605,0;31,73
22608,8;31,76
22612,5;31,78
22616,3;31,81
22620,0;31,83
22623,8;31,85
22627,5;31,88
22631,3;31,90
22635,0;31,92
22638,8;31,94
22642,5;31,95
22646,3;31,96
22650,0;31,98
22653,8;31,99
22657,5;32,00
22661,3;32,01
22665,0;32,02
22668,8;32,02
22672,5;32,03
22676,3;32,04
22680,0;32,04
22683,8;32,04
22687,5;32,05
22691,3;32,05
22695,0;32,05
22698,8;32,05
22702,5;32,05
22706,3;32,04
22710,0;32,04
22713,8;32,03
22717,5;32,02
22721,3;32,02
22725,0;32,01
22728,8;32,00
22732,5;31,99
22736,3;31,99
22740,0;31,98
22743,8;31,98
22747,5;31,98
22751,3;31,97
22755,0;31,97
22758,8;31,97
22762,5;31,97
22766,3;31,97
22770,0;31,96
22773,8;31,96
22777,5;31,96
22781,3;31,96
22785,0;31,97
22788,8;31,97
22792,5;31,97
22796,3;31,97
22800,0;31,98
22803,8;31,98
22807,5;31,99
22811,3;32,00
22815,0;32,01
22818,8;32,02
22822,5;32,03
22826,3;32,04
22830,0;32,05
22833,8;32,06
22837,5;32,07
22841,3;32,08
22845,0;32,08
22848,8;32,09
22852,5;32,10
22856,3;32,10
22860,0;32,11
22863,8;32,11
22867,5;32,12
22871,3;32,12
22875,0;32,13
22878,8;32,13
22882,5;32,14
22886,3;32,14
22890,0;32,14
22893,8;32,14
22897,5;32,14
22901,3;32,15
22905,0;32,14
22908,8;32,14
22912,5;32,14
22916,3;32,13
22920,0;32,13
22923,8;32,12
22927,5;32,12
22931,3;32,11
22935,0;32,11
22938,8;32,10
22942,5;32,10
22946,3;32,10
22950,0;32,10
22953,8;32,10
22957,5;32,10
22961,3;32,10
22965,0;32,10
22968,8;32,10
22972,5;32,10
22976,3;32,11
22980,0;32,11
22983,8;32,12
22987,5;32,12
22991,3;32,13
22995,0;32,14
22998,8;32,15
23002,5;32,16
23006,3;32,17
23010,0;32,19
23013,8;32,21
23017,5;32,23
23021,3;32,25
23025,0;32,27
23028,8;32,29
23032,5;32,32
23036,3;32,34
23040,0;32,37
23043,8;32,39
23047,5;32,42
23051,3;32,44
23055,0;32,46
23058,8;32,48
23062,5;32,50
23066,3;32,52
23070,0;32,54
23073,8;32,56
23077,5;32,58
23081,3;32,60
23085,0;32,62
23088,8;32,64
23092,5;32,65
23096,3;32,67
23100,0;32,68
23103,8;32,68
23107,5;32,69
23111,3;32,69
23115,0;32,68
23118,8;32,68
23122,5;32,66
23126,3;32,65
23130,0;32,63
23133,8;32,62
23137,5;32,59
23141,3;32,57
23145,0;32,54
23148,8;32,52
23152,5;32,49
23156,3;32,46
23160,0;32,43
23163,8;32,39
23167,5;32,36
23171,3;32,32
23175,0;32,28
23178,8;32,23
23182,5;32,18
23186,3;32,13
23190,0;32,08
23193,8;32,03
23197,5;31,98
23201,3;31,92
23205,0;31,87
23208,8;31,83
23212,5;31,78
23216,3;31,74
23220,0;31,71
23223,8;31,67
23227,5;31,64
23231,3;31,61
23235,0;31,58
23238,8;31,55
23242,5;31,52
23246,3;31,49
23250,0;31,47
23253,8;31,45
23257,5;31,43
23261,3;31,42
23265,0;31,41
23268,8;31,41
23272,5;31,41
23276,3;31,42
23280,0;31,43
23283,8;31,45
23287,5;31,47
23291,3;31,49
23295,0;31,52
23298,8;31,56
23302,5;31,59
23306,3;31,63
23310,0;31,67
23313,8;31,72
23317,5;31,76
23321,3;31,80
23325,0;31,85
23328,8;31,89
23332,5;31,94
23336,3;31,99
23340,0;32,05
23343,8;32,11
23347,5;32,17
23351,3;32,23
23355,0;32,30
23358,8;32,36
23362,5;32,42
23366,3;32,48
23370,0;32,54
23373,8;32,59
23377,5;32,64
23381,3;32,69
23385,0;32,73
23388,8;32,77
23392,5;32,81
23396,3;32,85
23400,0;32,88
23403,8;32,92
23407,5;32,95
23411,3;32,98
23415,0;33,00
23418,8;33,03
23422,5;33,05
23426,3;33,07
23430,0;33,08
23433,8;33,09
23437,5;33,10
23441,3;33,10
23445,0;33,10
23448,8;33,09
23452,5;33,08
23456,3;33,07
23460,0;33,05
23463,8;33,03
23467,5;33,01
23471,3;32,99
23475,0;32,97
23478,8;32,94
23482,5;32,92
23486,3;32,89
23490,0;32,87
23493,8;32,85
23497,5;32,83
23501,3;32,80
23505,0;32,77
23508,8;32,75
23512,5;32,72
23516,3;32,69
23520,0;32,66
23523,8;32,63
23527,5;32,60
23531,3;32,57
23535,0;32,55
23538,8;32,52
23542,5;32,50
23546,3;32,49
23550,0;32,47
23553,8;32,46
23557,5;32,45
23561,3;32,44
23565,0;32,43
23568,8;32,43
23572,5;32,42
23576,3;32,42
23580,0;32,42
23583,8;32,42
23587,5;32,42
23591,3;32,42
23595,0;32,43
23598,8;32,43
23602,5;32,43
23606,3;32,44
23610,0;32,45
23613,8;32,46
23617,5;32,47
23621,3;32,48
23625,0;32,50
23628,8;32,51
23632,5;32,53
23636,3;32,55
23640,0;32,56
23643,8;32,58
23647,5;32,59
23651,3;32,60
23655,0;32,62
23658,8;32,63
23662,5;32,64
23666,3;32,64
23670,0;32,65
23673,8;32,66
23677,5;32,67
23681,3;32,67
23685,0;32,68
23688,8;32,69
23692,5;32,69
23696,3;32,70
23700,0;32,70
23703,8;32,70
23707,5;32,70
23711,3;32,70
23715,0;32,70
23718,8;32,70
23722,5;32,70
23726,3;32,69
23730,0;32,68
23733,8;32,68
23737,5;32,67
23741,3;32,66
23745,0;32,65
23748,8;32,64
23752,5;32,63
23756,3;32,62
23760,0;32,61
23763,8;32,60
23767,5;32,59
23771,3;32,59
23775,0;32,58
23778,8;32,57
23782,5;32,57
23786,3;32,56
23790,0;32,55
23793,8;32,55
23797,5;32,54
23801,3;32,53
23805,0;32,53
23808,8;32,52
23812,5;32,52
23816,3;32,51
23820,0;32,51
23823,8;32,51
23827,5;32,51
23831,3;32,51
23835,0;32,51
23838,8;32,52
23842,5;32,52
23846,3;32,52
23850,0;32,53
23853,8;32,54
23857,5;32,54
23861,3;32,55
23865,0;32,56
23868,8;32,57
23872,5;32,57
23876,3;32,58
23880,0;32,58
23883,8;32,59
23887,5;32,59
23891,3;32,60
23895,0;32,60
23898,8;32,61
23902,5;32,61
23906,3;32,61
23910,0;32,62
23913,8;32,62
23917,5;32,63
23921,3;32,63
23925,0;32,63
23928,8;32,63
23932,5;32,63
23936,3;32,63
23940,0;32,63
23943,8;32,62
23947,5;32,62
23951,3;32,61
23955,0;32,60
23958,8;32,59
23962,5;32,58
23966,3;32,57
23970,0;32,55
23973,8;32,54
23977,5;32,52
23981,3;32,51
23985,0;32,50
23988,8;32,48
23992,5;32,47
23996,3;32,45
24000,0;32,44
24003,8;32,42
24007,5;32,40
24011,3;32,39
24015,0;32,37
24018,8;32,35
24022,5;32,33
24026,3;32,31
24030,0;32,29
24033,8;32,27
24037,5;32,25
24041,3;32,24
24045,0;32,22
24048,8;32,20
24052,5;32,19
24056,3;32,17
24060,0;32,16
24063,8;32,15
24067,5;32,14
24071,3;32,13
24075,0;32,12
24078,8;32,11
24082,5;32,10
24086,3;32,09
24090,0;32,08
24093,8;32,08
24097,5;32,07
24101,3;32,07
24105,0;32,06
24108,8;32,06
24112,5;32,05
24116,3;32,05
24120,0;32,05
24123,8;32,05
24127,5;32,05
24131,3;32,05
24135,0;32,06
24138,8;32,06
24142,5;32,06
24146,3;32,07
24150,0;32,07
24153,8;32,07
24157,5;32,08
24161,3;32,08
24165,0;32,09
24168,8;32,09
24172,5;32,09
24176,3;32,09
24180,0;32,09
24183,8;32,10
24187,5;32,10
24191,3;32,10
24195,0;32,10
24198,8;32,10
24202,5;32,10
24206,3;32,10
24210,0;32,10
24213,8;32,10
24217,5;32,10
24221,3;32,10
24225,0;32,10
24228,8;32,10
24232,5;32,10
24236,3;32,09
24240,0;32,09
24243,8;32,08
24247,5;32,08
24251,3;32,07
24255,0;32,06
24258,8;32,06
24262,5;32,05
24266,3;32,04
24270,0;32,04
24273,8;32,03
24277,5;32,02
24281,3;32,02
24285,0;32,01
24288,8;32,01
24292,5;32,01
24296,3;32,01
24300,0;32,01
24303,8;32,01
24307,5;32,01
24311,3;32,01
24315,0;32,01
24318,8;32,01
24322,5;32,01
24326,3;32,01
24330,0;32,02
24333,8;32,02
24337,5;32,03
24341,3;32,04
24345,0;32,05
24348,8;32,06
24352,5;32,08
24356,3;32,10
24360,0;32,12
24363,8;32,14
24367,5;32,16
24371,3;32,19
24375,0;32,22
24378,8;32,24
24382,5;32,27
24386,3;32,30
24390,0;32,33
24393,8;32,37
24397,5;32,40
24401,3;32,43
24405,0;32,47
24408,8;32,50
24412,5;32,53
24416,3;32,57
24420,0;32,61
24423,8;32,65
24427,5;32,69
24431,3;32,73
24435,0;32,77
24438,8;32,82
24442,5;32,86
24446,3;32,90
24450,0;32,94
24453,8;32,98
24457,5;33,02
24461,3;33,06
24465,0;33,09
24468,8;33,12
24472,5;33,15
24476,3;33,17
24480,0;33,20
24483,8;33,23
24487,5;33,25
24491,3;33,27
24495,0;33,29
24498,8;33,31
24502,5;33,33
24506,3;33,35
24510,0;33,36
24513,8;33,37
24517,5;33,38
24521,3;33,39
24525,0;33,39
24528,8;33,39
24532,5;33,38
24536,3;33,38
24540,0;33,36
24543,8;33,35
24547,5;33,33
24551,3;33,31
24555,0;33,29
24558,8;33,27
24562,5;33,24
24566,3;33,21
24570,0;33,18
24573,8;33,15
24577,5;33,12
24581,3;33,09
24585,0;33,06
24588,8;33,03
24592,5;32,99
24596,3;32,96
24600,0;32,92
24603,8;32,88
24607,5;32,84
24611,3;32,79
24615,0;32,75
24618,8;32,70
24622,5;32,66
24626,3;32,61
24630,0;32,57
24633,8;32,53
24637,5;32,48
24641,3;32,44
24645,0;32,41
24648,8;32,37
24652,5;32,34
24656,3;32,31
24660,0;32,28
24663,8;32,25
24667,5;32,22
24671,3;32,20
24675,0;32,17
24678,8;32,15
24682,5;32,12
24686,3;32,10
24690,0;32,08
24693,8;32,06
24697,5;32,04
24701,3;32,03
24705,0;32,02
24708,8;32,00
24712,5;32,00
24716,3;31,99
24720,0;31,99
24723,8;31,98
24727,5;31,98
24731,3;31,99
24735,0;31,99
24738,8;32,00
24742,5;32,00
24746,3;32,01
24750,0;32,02
24753,8;32,03
24757,5;32,04
24761,3;32,05
24765,0;32,06
24768,8;32,07
24772,5;32,08
24776,3;32,08
24780,0;32,09
24783,8;32,10
24787,5;32,12
24791,3;32,13
24795,0;32,14
24798,8;32,15
24802,5;32,16
24806,3;32,18
24810,0;32,19
24813,8;32,20
24817,5;32,21
24821,3;32,22
24825,0;32,23
24828,8;32,24
24832,5;32,25
24836,3;32,26
24840,0;32,26
24843,8;32,27
24847,5;32,27
24851,3;32,27
24855,0;32,27
24858,8;32,28
24862,5;32,28
24866,3;32,28
24870,0;32,28
24873,8;32,28
24877,5;32,28
24881,3;32,28
24885,0;32,28
24888,8;32,28
24892,5;32,28
24896,3;32,27
24900,0;32,27
24903,8;32,27
24907,5;32,27
24911,3;32,27
24915,0;32,27
24918,8;32,27
24922,5;32,26
24926,3;32,26
24930,0;32,26
24933,8;32,26
24937,5;32,25
24941,3;32,25
24945,0;32,25
24948,8;32,25
24952,5;32,24
24956,3;32,24
24960,0;32,24
